3.004999999999999893e-01
2.280000000000000082e-01
3.160000000000000031e-01
5.645000000000000018e-01
4.764999999999999791e-01
2.020000000000000129e-01
4.194999999999999840e-01
1.917500000000000038e-01
5.700000000000000205e-02
7.774999999999999967e-02
7.249999999999999500e-02
5.700000000000000205e-02
6.725000000000000422e-02
5.174999999999999739e-02
1.034999999999999948e-01
3.107500000000000262e-01
5.174999999999999739e-02
4.150000000000000216e-02
8.799999999999999489e-02
1.347500000000000087e-01
1.242499999999999993e-01
5.700000000000000205e-02
5.174999999999999739e-02
5.700000000000000205e-02
4.649999999999999967e-02
8.799999999999999489e-02
4.150000000000000216e-02
7.774999999999999967e-02
8.799999999999999489e-02
7.249999999999999500e-02
7.249999999999999500e-02
9.324999999999999956e-02
6.224999999999999978e-02
9.324999999999999956e-02
8.799999999999999489e-02
8.799999999999999489e-02
5.174999999999999739e-02
1.034999999999999948e-01
9.850000000000000422e-02
7.249999999999999500e-02
4.150000000000000216e-02
5.174999999999999739e-02
5.174999999999999739e-02
5.174999999999999739e-02
5.700000000000000205e-02
5.174999999999999739e-02
5.174999999999999739e-02
5.700000000000000205e-02
6.224999999999999978e-02
5.174999999999999739e-02
5.700000000000000205e-02
5.174999999999999739e-02
7.249999999999999500e-02
4.649999999999999967e-02
4.649999999999999967e-02
4.649999999999999967e-02
3.624999999999999750e-02
5.700000000000000205e-02
9.324999999999999956e-02
5.174999999999999739e-02
5.700000000000000205e-02
4.150000000000000216e-02
5.174999999999999739e-02
5.174999999999999739e-02
5.700000000000000205e-02
5.174999999999999739e-02
4.649999999999999967e-02
6.725000000000000422e-02
6.224999999999999978e-02
5.174999999999999739e-02
5.700000000000000205e-02
5.174999999999999739e-02
4.649999999999999967e-02
6.224999999999999978e-02
7.249999999999999500e-02
5.174999999999999739e-02
5.700000000000000205e-02
3.624999999999999750e-02
6.224999999999999978e-02
9.324999999999999956e-02
5.174999999999999739e-02
4.150000000000000216e-02
4.649999999999999967e-02
5.174999999999999739e-02
4.150000000000000216e-02
3.624999999999999750e-02
5.174999999999999739e-02
5.174999999999999739e-02
3.099999999999999978e-02
4.649999999999999967e-02
4.150000000000000216e-02
5.174999999999999739e-02
6.725000000000000422e-02
7.774999999999999967e-02
7.774999999999999967e-02
4.150000000000000216e-02
4.150000000000000216e-02
4.150000000000000216e-02
3.624999999999999750e-02
4.649999999999999967e-02
6.224999999999999978e-02
4.150000000000000216e-02
4.649999999999999967e-02
5.700000000000000205e-02
5.174999999999999739e-02
4.649999999999999967e-02
6.224999999999999978e-02
8.799999999999999489e-02
8.275000000000000411e-02
7.249999999999999500e-02
4.649999999999999967e-02
4.150000000000000216e-02
6.224999999999999978e-02
5.174999999999999739e-02
4.150000000000000216e-02
4.649999999999999967e-02
4.150000000000000216e-02
3.624999999999999750e-02
3.624999999999999750e-02
4.649999999999999967e-02
4.649999999999999967e-02
5.700000000000000205e-02
7.249999999999999500e-02
3.099999999999999978e-02
5.700000000000000205e-02
4.649999999999999967e-02
4.150000000000000216e-02
4.649999999999999967e-02
4.150000000000000216e-02
3.624999999999999750e-02
4.649999999999999967e-02
6.725000000000000422e-02
4.649999999999999967e-02
5.700000000000000205e-02
4.649999999999999967e-02
1.034999999999999948e-01
5.174999999999999739e-02
5.174999999999999739e-02
5.174999999999999739e-02
4.649999999999999967e-02
5.174999999999999739e-02
5.174999999999999739e-02
5.700000000000000205e-02
6.725000000000000422e-02
5.700000000000000205e-02
3.624999999999999750e-02
3.099999999999999978e-02
5.174999999999999739e-02
5.700000000000000205e-02
7.249999999999999500e-02
1.242499999999999993e-01
5.905000000000000249e-01
1.020250000000000101e+00
6.577499999999999458e-01
2.537499999999999756e-01
4.817500000000000115e-01
5.852500000000000480e-01
5.180000000000000160e-01
1.175750000000000073e+00
1.206749999999999989e+00
6.059999999999999831e-01
7.457500000000000240e-01
6.732500000000000151e-01
8.132500000000000284e-01
5.542500000000000204e-01
9.839999999999999858e-01
1.160250000000000004e+00
2.484999999999999987e-01
6.630000000000000338e-01
6.992500000000000382e-01
6.939999999999999503e-01
5.749999999999999556e-01
9.167499999999999538e-01
6.267500000000000293e-01
4.040000000000000258e-01
5.437499999999999556e-01
2.899999999999999800e-01
6.370000000000000107e-01
6.215000000000000524e-01
9.322500000000000231e-01
7.252499999999999503e-01
5.852500000000000480e-01
1.149750000000000050e+00
1.776499999999999968e+00
1.792249999999999899e+00
1.548750000000000071e+00
2.273750000000000160e+00
1.776499999999999968e+00
7.457500000000000240e-01
1.750750000000000028e+00
1.554999999999999993e-01
8.275000000000000411e-02
4.919999999999999929e-01
1.502499999999999947e-01
9.324999999999999956e-02
8.799999999999999489e-02
1.087499999999999994e-01
2.227500000000000036e-01
1.242499999999999993e-01
8.275000000000000411e-02
8.799999999999999489e-02
1.502499999999999947e-01
1.347500000000000087e-01
9.324999999999999956e-02
9.850000000000000422e-02
3.107500000000000262e-01
8.960000000000000187e-01
7.770000000000000240e-01
1.030750000000000055e+00
1.522750000000000048e+00
1.844000000000000083e+00
2.652000000000000135e+00
1.755749999999999922e+00
1.688499999999999890e+00
3.832499999999999796e-01
9.582500000000000462e-01
1.336249999999999938e+00
2.745000000000000218e-01
2.174999999999999989e-01
3.262499999999999845e-01
4.299999999999999933e-01
1.108500000000000041e+00
6.059999999999999831e-01
3.367499999999999938e-01
3.107500000000000262e-01
3.780000000000000027e-01
5.232499999999999929e-01
6.370000000000000107e-01
5.905000000000000249e-01
6.577499999999999458e-01
1.206749999999999989e+00
9.997500000000000275e-01
8.027499999999999636e-01
2.849999999999999756e-01
1.595250000000000057e+00
1.036000000000000032e+00
6.759249999999999758e+00
8.189000000000000057e+00
5.692249999999999588e+00
1.077250000000000041e+00
1.967500000000000082e-01
3.367499999999999938e-01
5.232499999999999929e-01
3.937499999999999889e-01
4.299999999999999933e-01
5.127500000000000391e-01
7.355000000000000426e-01
8.804999999999999494e-01
6.992500000000000382e-01
3.677500000000000213e-01
-3.430000000000000271e-01
-4.201749999999999652e+00
9.427499999999999769e-01
1.066999999999999948e+00
1.268999999999999906e+00
6.784999999999999920e-01
7.147499999999999964e-01
2.899999999999999800e-01
5.645000000000000018e-01
6.370000000000000107e-01
1.072249999999999925e+00
7.562499999999999778e-01
3.522500000000000075e-01
3.107500000000000262e-01
8.339999999999999636e-01
4.662499999999999978e-01
4.402499999999999747e-01
2.174999999999999989e-01
9.850000000000000422e-02
1.917500000000000038e-01
1.118749999999999911e+00
1.077250000000000041e+00
1.901000000000000023e+00
2.864250000000000185e+00
5.127500000000000391e-01
1.397500000000000131e-01
2.020000000000000129e-01
2.745000000000000218e-01
1.242499999999999993e-01
5.700000000000000205e-02
1.034999999999999948e-01
5.174999999999999739e-02
7.774999999999999967e-02
5.700000000000000205e-02
5.700000000000000205e-02
5.174999999999999739e-02
4.150000000000000216e-02
6.224999999999999978e-02
5.700000000000000205e-02
5.700000000000000205e-02
7.249999999999999500e-02
9.850000000000000422e-02
4.649999999999999967e-02
4.150000000000000216e-02
6.224999999999999978e-02
5.174999999999999739e-02
5.174999999999999739e-02
5.174999999999999739e-02
6.224999999999999978e-02
4.150000000000000216e-02
5.700000000000000205e-02
8.275000000000000411e-02
4.649999999999999967e-02
4.150000000000000216e-02
4.649999999999999967e-02
4.649999999999999967e-02
4.649999999999999967e-02
4.649999999999999967e-02
5.174999999999999739e-02
4.649999999999999967e-02
5.174999999999999739e-02
8.275000000000000411e-02
4.649999999999999967e-02
6.224999999999999978e-02
6.224999999999999978e-02
6.224999999999999978e-02
5.174999999999999739e-02
5.174999999999999739e-02
4.150000000000000216e-02
5.174999999999999739e-02
5.700000000000000205e-02
6.224999999999999978e-02
6.224999999999999978e-02
4.649999999999999967e-02
6.725000000000000422e-02
5.174999999999999739e-02
6.224999999999999978e-02
5.174999999999999739e-02
5.174999999999999739e-02
4.649999999999999967e-02
4.649999999999999967e-02
7.774999999999999967e-02
4.649999999999999967e-02
5.700000000000000205e-02
3.624999999999999750e-02
4.150000000000000216e-02
6.224999999999999978e-02
5.174999999999999739e-02
5.700000000000000205e-02
5.700000000000000205e-02
5.174999999999999739e-02
6.224999999999999978e-02
8.275000000000000411e-02
5.174999999999999739e-02
4.150000000000000216e-02
5.700000000000000205e-02
4.150000000000000216e-02
4.150000000000000216e-02
6.725000000000000422e-02
3.624999999999999750e-02
5.700000000000000205e-02
5.174999999999999739e-02
5.700000000000000205e-02
6.725000000000000422e-02
6.725000000000000422e-02
5.174999999999999739e-02
4.150000000000000216e-02
5.174999999999999739e-02
4.150000000000000216e-02
4.649999999999999967e-02
4.649999999999999967e-02
6.725000000000000422e-02
4.649999999999999967e-02
5.700000000000000205e-02
5.174999999999999739e-02
6.725000000000000422e-02
5.700000000000000205e-02
7.249999999999999500e-02
3.624999999999999750e-02
7.249999999999999500e-02
5.700000000000000205e-02
6.224999999999999978e-02
5.174999999999999739e-02
7.774999999999999967e-02
4.150000000000000216e-02
6.224999999999999978e-02
4.649999999999999967e-02
5.174999999999999739e-02
5.174999999999999739e-02
6.725000000000000422e-02
7.249999999999999500e-02
1.242499999999999993e-01
5.174999999999999739e-02
5.700000000000000205e-02
5.174999999999999739e-02
5.174999999999999739e-02
3.624999999999999750e-02
4.150000000000000216e-02
4.150000000000000216e-02
5.174999999999999739e-02
4.649999999999999967e-02
5.700000000000000205e-02
6.224999999999999978e-02
4.649999999999999967e-02
5.174999999999999739e-02
9.850000000000000422e-02
5.700000000000000205e-02
3.624999999999999750e-02
4.649999999999999967e-02
5.174999999999999739e-02
5.174999999999999739e-02
5.700000000000000205e-02
5.700000000000000205e-02
5.700000000000000205e-02
5.700000000000000205e-02
5.700000000000000205e-02
5.700000000000000205e-02
5.700000000000000205e-02
4.649999999999999967e-02
1.034999999999999948e-01
4.649999999999999967e-02
3.099999999999999978e-02
6.224999999999999978e-02
5.700000000000000205e-02
4.649999999999999967e-02
5.174999999999999739e-02
4.649999999999999967e-02
4.649999999999999967e-02
6.224999999999999978e-02
4.649999999999999967e-02
4.150000000000000216e-02
4.649999999999999967e-02
4.649999999999999967e-02
5.700000000000000205e-02
1.034999999999999948e-01
5.700000000000000205e-02
5.174999999999999739e-02
4.649999999999999967e-02
4.150000000000000216e-02
3.099999999999999978e-02
5.174999999999999739e-02
6.224999999999999978e-02
5.174999999999999739e-02
5.700000000000000205e-02
6.725000000000000422e-02
4.649999999999999967e-02
5.174999999999999739e-02
4.649999999999999967e-02
8.275000000000000411e-02
8.799999999999999489e-02
3.099999999999999978e-02
5.700000000000000205e-02
5.700000000000000205e-02
4.649999999999999967e-02
5.174999999999999739e-02
5.174999999999999739e-02
4.649999999999999967e-02
3.099999999999999978e-02
4.150000000000000216e-02
4.649999999999999967e-02
4.649999999999999967e-02
5.700000000000000205e-02
5.700000000000000205e-02
6.224999999999999978e-02
5.174999999999999739e-02
4.649999999999999967e-02
6.725000000000000422e-02
6.224999999999999978e-02
4.649999999999999967e-02
5.174999999999999739e-02
4.649999999999999967e-02
6.725000000000000422e-02
4.649999999999999967e-02
4.649999999999999967e-02
3.624999999999999750e-02
6.725000000000000422e-02
9.850000000000000422e-02
8.799999999999999489e-02
5.700000000000000205e-02
7.249999999999999500e-02
5.174999999999999739e-02
7.249999999999999500e-02
6.224999999999999978e-02
7.249999999999999500e-02
5.174999999999999739e-02
6.725000000000000422e-02
5.174999999999999739e-02
4.649999999999999967e-02
6.725000000000000422e-02
7.774999999999999967e-02
6.224999999999999978e-02
5.700000000000000205e-02
6.224999999999999978e-02
5.174999999999999739e-02
5.700000000000000205e-02
7.249999999999999500e-02
5.174999999999999739e-02
6.725000000000000422e-02
4.649999999999999967e-02
6.224999999999999978e-02
8.275000000000000411e-02
9.850000000000000422e-02
5.174999999999999739e-02
5.700000000000000205e-02
5.700000000000000205e-02
5.174999999999999739e-02
6.224999999999999978e-02
6.224999999999999978e-02
8.275000000000000411e-02
5.174999999999999739e-02
6.224999999999999978e-02
8.275000000000000411e-02
8.799999999999999489e-02
5.700000000000000205e-02
4.649999999999999967e-02
5.174999999999999739e-02
5.700000000000000205e-02
6.224999999999999978e-02
5.174999999999999739e-02
6.725000000000000422e-02
6.224999999999999978e-02
6.224999999999999978e-02
1.034999999999999948e-01
4.649999999999999967e-02
6.224999999999999978e-02
5.174999999999999739e-02
7.774999999999999967e-02
6.224999999999999978e-02
4.649999999999999967e-02
6.725000000000000422e-02
5.700000000000000205e-02
5.174999999999999739e-02
7.774999999999999967e-02
1.034999999999999948e-01
5.174999999999999739e-02
5.174999999999999739e-02
5.174999999999999739e-02
4.649999999999999967e-02
4.649999999999999967e-02
4.649999999999999967e-02
5.174999999999999739e-02
4.150000000000000216e-02
5.174999999999999739e-02
6.224999999999999978e-02
6.725000000000000422e-02
4.150000000000000216e-02
5.174999999999999739e-02
5.700000000000000205e-02
5.700000000000000205e-02
5.700000000000000205e-02
4.150000000000000216e-02
6.224999999999999978e-02
5.700000000000000205e-02
5.700000000000000205e-02
4.649999999999999967e-02
5.174999999999999739e-02
6.725000000000000422e-02
5.700000000000000205e-02
3.099999999999999978e-02
5.174999999999999739e-02
4.649999999999999967e-02
5.700000000000000205e-02
5.700000000000000205e-02
3.624999999999999750e-02
4.649999999999999967e-02
6.224999999999999978e-02
5.700000000000000205e-02
5.174999999999999739e-02
5.700000000000000205e-02
4.649999999999999967e-02
5.174999999999999739e-02
6.725000000000000422e-02
7.249999999999999500e-02
6.725000000000000422e-02
4.150000000000000216e-02
3.624999999999999750e-02
4.649999999999999967e-02
5.174999999999999739e-02
4.150000000000000216e-02
3.624999999999999750e-02
4.150000000000000216e-02
5.700000000000000205e-02
5.174999999999999739e-02
4.150000000000000216e-02
5.700000000000000205e-02
5.174999999999999739e-02
8.799999999999999489e-02
8.275000000000000411e-02
4.150000000000000216e-02
5.174999999999999739e-02
5.700000000000000205e-02
5.174999999999999739e-02
6.725000000000000422e-02
4.150000000000000216e-02
5.700000000000000205e-02
5.174999999999999739e-02
4.150000000000000216e-02
4.150000000000000216e-02
5.700000000000000205e-02
5.174999999999999739e-02
7.774999999999999967e-02
9.324999999999999956e-02
4.649999999999999967e-02
4.150000000000000216e-02
6.725000000000000422e-02
4.150000000000000216e-02
6.224999999999999978e-02
4.649999999999999967e-02
5.700000000000000205e-02
5.700000000000000205e-02
5.174999999999999739e-02
5.174999999999999739e-02
5.700000000000000205e-02
5.174999999999999739e-02
9.850000000000000422e-02
5.174999999999999739e-02
5.174999999999999739e-02
5.174999999999999739e-02
4.150000000000000216e-02
4.150000000000000216e-02
6.224999999999999978e-02
5.700000000000000205e-02
4.150000000000000216e-02
5.700000000000000205e-02
6.224999999999999978e-02
5.700000000000000205e-02
9.324999999999999956e-02
4.649999999999999967e-02
4.150000000000000216e-02
4.649999999999999967e-02
5.700000000000000205e-02
4.649999999999999967e-02
5.174999999999999739e-02
4.150000000000000216e-02
3.624999999999999750e-02
4.150000000000000216e-02
4.649999999999999967e-02
4.649999999999999967e-02
4.150000000000000216e-02
1.140000000000000041e-01
7.774999999999999967e-02
5.174999999999999739e-02
4.150000000000000216e-02
6.224999999999999978e-02
4.150000000000000216e-02
6.224999999999999978e-02
6.224999999999999978e-02
4.649999999999999967e-02
4.150000000000000216e-02
4.150000000000000216e-02
4.649999999999999967e-02
4.649999999999999967e-02
4.150000000000000216e-02
8.275000000000000411e-02
5.700000000000000205e-02
5.174999999999999739e-02
5.174999999999999739e-02
4.649999999999999967e-02
4.150000000000000216e-02
4.150000000000000216e-02
5.174999999999999739e-02
4.150000000000000216e-02
5.700000000000000205e-02
5.174999999999999739e-02
4.649999999999999967e-02
3.624999999999999750e-02
5.700000000000000205e-02
9.850000000000000422e-02
4.150000000000000216e-02
5.700000000000000205e-02
4.649999999999999967e-02
5.700000000000000205e-02
4.150000000000000216e-02
3.624999999999999750e-02
5.174999999999999739e-02
6.224999999999999978e-02
4.150000000000000216e-02
4.150000000000000216e-02
3.099999999999999978e-02
4.150000000000000216e-02
6.725000000000000422e-02
7.249999999999999500e-02
4.150000000000000216e-02
5.700000000000000205e-02
5.174999999999999739e-02
5.700000000000000205e-02
4.150000000000000216e-02
5.700000000000000205e-02
4.649999999999999967e-02
3.624999999999999750e-02
5.700000000000000205e-02
4.649999999999999967e-02
6.224999999999999978e-02
5.700000000000000205e-02
8.799999999999999489e-02
3.624999999999999750e-02
4.150000000000000216e-02
4.150000000000000216e-02
5.174999999999999739e-02
5.700000000000000205e-02
4.649999999999999967e-02
4.150000000000000216e-02
4.649999999999999967e-02
3.624999999999999750e-02
5.174999999999999739e-02
5.700000000000000205e-02
5.174999999999999739e-02
6.224999999999999978e-02
5.700000000000000205e-02
4.649999999999999967e-02
5.174999999999999739e-02
5.174999999999999739e-02
5.700000000000000205e-02
5.700000000000000205e-02
4.649999999999999967e-02
4.150000000000000216e-02
4.649999999999999967e-02
4.649999999999999967e-02
4.150000000000000216e-02
4.649999999999999967e-02
4.649999999999999967e-02
8.275000000000000411e-02
4.649999999999999967e-02
6.224999999999999978e-02
4.649999999999999967e-02
4.649999999999999967e-02
6.224999999999999978e-02
4.150000000000000216e-02
5.174999999999999739e-02
4.649999999999999967e-02
3.624999999999999750e-02
5.700000000000000205e-02
3.624999999999999750e-02
4.649999999999999967e-02
4.150000000000000216e-02
4.649999999999999967e-02
5.700000000000000205e-02
7.774999999999999967e-02
5.700000000000000205e-02
4.649999999999999967e-02
5.700000000000000205e-02
2.599999999999999881e-02
6.224999999999999978e-02
6.224999999999999978e-02
4.150000000000000216e-02
4.150000000000000216e-02
6.224999999999999978e-02
4.150000000000000216e-02
4.649999999999999967e-02
3.099999999999999978e-02
5.700000000000000205e-02
5.174999999999999739e-02
8.275000000000000411e-02
4.557499999999999885e-01
8.275000000000000411e-02
6.725000000000000422e-02
7.249999999999999500e-02
7.774999999999999967e-02
1.242499999999999993e-01
6.224999999999999978e-02
7.249999999999999500e-02
7.249999999999999500e-02
4.649999999999999967e-02
4.649999999999999967e-02
4.649999999999999967e-02
4.649999999999999967e-02
4.649999999999999967e-02
3.624999999999999750e-02
1.034999999999999948e-01
8.799999999999999489e-02
6.725000000000000422e-02
6.725000000000000422e-02
4.649999999999999967e-02
5.174999999999999739e-02
6.725000000000000422e-02
5.174999999999999739e-02
4.150000000000000216e-02
5.700000000000000205e-02
6.725000000000000422e-02
4.649999999999999967e-02
4.150000000000000216e-02
5.700000000000000205e-02
6.224999999999999978e-02
8.275000000000000411e-02
4.649999999999999967e-02
4.649999999999999967e-02
6.224999999999999978e-02
4.649999999999999967e-02
5.174999999999999739e-02
6.224999999999999978e-02
5.700000000000000205e-02
5.700000000000000205e-02
4.150000000000000216e-02
5.700000000000000205e-02
4.649999999999999967e-02
4.649999999999999967e-02
3.624999999999999750e-02
7.249999999999999500e-02
5.174999999999999739e-02
5.700000000000000205e-02
4.150000000000000216e-02
5.174999999999999739e-02
4.649999999999999967e-02
6.224999999999999978e-02
7.249999999999999500e-02
5.174999999999999739e-02
7.249999999999999500e-02
6.224999999999999978e-02
4.649999999999999967e-02
3.099999999999999978e-02
4.150000000000000216e-02
4.649999999999999967e-02
1.034999999999999948e-01
6.224999999999999978e-02
6.224999999999999978e-02
4.649999999999999967e-02
4.150000000000000216e-02
5.174999999999999739e-02
3.624999999999999750e-02
4.649999999999999967e-02
3.624999999999999750e-02
3.624999999999999750e-02
6.224999999999999978e-02
4.649999999999999967e-02
4.150000000000000216e-02
8.275000000000000411e-02
9.324999999999999956e-02
1.710000000000000131e-01
1.295000000000000040e-01
6.725000000000000422e-02
2.745000000000000218e-01
1.192499999999999949e-01
9.850000000000000422e-02
6.224999999999999978e-02
5.700000000000000205e-02
5.700000000000000205e-02
6.224999999999999978e-02
4.649999999999999967e-02
6.224999999999999978e-02
5.700000000000000205e-02
9.850000000000000422e-02
6.224999999999999978e-02
4.649999999999999967e-02
6.224999999999999978e-02
5.174999999999999739e-02
7.249999999999999500e-02
6.725000000000000422e-02
6.224999999999999978e-02
4.150000000000000216e-02
4.649999999999999967e-02
4.150000000000000216e-02
5.174999999999999739e-02
5.700000000000000205e-02
7.249999999999999500e-02
5.174999999999999739e-02
4.649999999999999967e-02
4.649999999999999967e-02
4.649999999999999967e-02
4.649999999999999967e-02
4.150000000000000216e-02
7.249999999999999500e-02
5.174999999999999739e-02
5.700000000000000205e-02
5.700000000000000205e-02
5.174999999999999739e-02
4.649999999999999967e-02
7.249999999999999500e-02
4.150000000000000216e-02
4.649999999999999967e-02
3.624999999999999750e-02
4.150000000000000216e-02
6.224999999999999978e-02
4.150000000000000216e-02
4.649999999999999967e-02
5.700000000000000205e-02
5.174999999999999739e-02
5.174999999999999739e-02
5.174999999999999739e-02
5.700000000000000205e-02
5.700000000000000205e-02
6.725000000000000422e-02
4.649999999999999967e-02
4.150000000000000216e-02
5.700000000000000205e-02
6.224999999999999978e-02
4.150000000000000216e-02
4.649999999999999967e-02
4.649999999999999967e-02
4.649999999999999967e-02
3.624999999999999750e-02
4.649999999999999967e-02
4.649999999999999967e-02
4.649999999999999967e-02
4.649999999999999967e-02
8.799999999999999489e-02
6.224999999999999978e-02
4.150000000000000216e-02
6.224999999999999978e-02
5.174999999999999739e-02
6.224999999999999978e-02
4.649999999999999967e-02
5.700000000000000205e-02
4.150000000000000216e-02
5.700000000000000205e-02
3.624999999999999750e-02
5.174999999999999739e-02
5.174999999999999739e-02
5.700000000000000205e-02
6.224999999999999978e-02
5.174999999999999739e-02
4.649999999999999967e-02
5.174999999999999739e-02
5.700000000000000205e-02
4.649999999999999967e-02
4.150000000000000216e-02
5.174999999999999739e-02
5.700000000000000205e-02
6.224999999999999978e-02
6.224999999999999978e-02
4.150000000000000216e-02
3.624999999999999750e-02
4.649999999999999967e-02
7.774999999999999967e-02
4.649999999999999967e-02
3.624999999999999750e-02
4.649999999999999967e-02
3.624999999999999750e-02
4.150000000000000216e-02
4.150000000000000216e-02
3.624999999999999750e-02
6.224999999999999978e-02
3.624999999999999750e-02
4.649999999999999967e-02
4.649999999999999967e-02
4.649999999999999967e-02
4.150000000000000216e-02
5.174999999999999739e-02
1.087499999999999994e-01
5.174999999999999739e-02
6.725000000000000422e-02
4.649999999999999967e-02
4.150000000000000216e-02
4.150000000000000216e-02
5.174999999999999739e-02
4.649999999999999967e-02
4.150000000000000216e-02
4.150000000000000216e-02
4.150000000000000216e-02
6.224999999999999978e-02
3.624999999999999750e-02
4.649999999999999967e-02
6.725000000000000422e-02
7.774999999999999967e-02
4.150000000000000216e-02
5.174999999999999739e-02
5.174999999999999739e-02
5.174999999999999739e-02
4.649999999999999967e-02
4.649999999999999967e-02
5.700000000000000205e-02
3.099999999999999978e-02
5.700000000000000205e-02
4.150000000000000216e-02
5.174999999999999739e-02
7.774999999999999967e-02
3.624999999999999750e-02
1.140000000000000041e-01
7.249999999999999500e-02
5.174999999999999739e-02
5.174999999999999739e-02
5.700000000000000205e-02
5.174999999999999739e-02
5.174999999999999739e-02
4.150000000000000216e-02
4.649999999999999967e-02
4.150000000000000216e-02
4.150000000000000216e-02
5.700000000000000205e-02
5.174999999999999739e-02
1.034999999999999948e-01
7.774999999999999967e-02
4.150000000000000216e-02
3.099999999999999978e-02
5.700000000000000205e-02
5.174999999999999739e-02
4.649999999999999967e-02
8.275000000000000411e-02
5.700000000000000205e-02
4.649999999999999967e-02
5.700000000000000205e-02
4.150000000000000216e-02
4.649999999999999967e-02
6.725000000000000422e-02
6.725000000000000422e-02
3.099999999999999978e-02
5.174999999999999739e-02
5.174999999999999739e-02
4.649999999999999967e-02
5.700000000000000205e-02
3.624999999999999750e-02
4.150000000000000216e-02
4.649999999999999967e-02
4.649999999999999967e-02
3.624999999999999750e-02
4.649999999999999967e-02
4.150000000000000216e-02
5.174999999999999739e-02
7.249999999999999500e-02
6.224999999999999978e-02
5.174999999999999739e-02
5.174999999999999739e-02
6.224999999999999978e-02
4.150000000000000216e-02
5.174999999999999739e-02
4.649999999999999967e-02
5.174999999999999739e-02
5.174999999999999739e-02
4.649999999999999967e-02
5.174999999999999739e-02
4.649999999999999967e-02
5.174999999999999739e-02
5.700000000000000205e-02
8.799999999999999489e-02
3.624999999999999750e-02
4.649999999999999967e-02
4.649999999999999967e-02
8.275000000000000411e-02
5.174999999999999739e-02
5.174999999999999739e-02
5.174999999999999739e-02
4.150000000000000216e-02
4.150000000000000216e-02
4.150000000000000216e-02
6.224999999999999978e-02
4.649999999999999967e-02
3.624999999999999750e-02
1.087499999999999994e-01
6.725000000000000422e-02
6.224999999999999978e-02
5.700000000000000205e-02
5.174999999999999739e-02
5.700000000000000205e-02
4.649999999999999967e-02
3.624999999999999750e-02
4.649999999999999967e-02
6.224999999999999978e-02
5.174999999999999739e-02
4.150000000000000216e-02
7.249999999999999500e-02
1.034999999999999948e-01
6.725000000000000422e-02
4.649999999999999967e-02
4.150000000000000216e-02
4.150000000000000216e-02
4.649999999999999967e-02
5.700000000000000205e-02
5.174999999999999739e-02
6.224999999999999978e-02
5.700000000000000205e-02
5.174999999999999739e-02
3.624999999999999750e-02
6.725000000000000422e-02
6.224999999999999978e-02
7.774999999999999967e-02
9.850000000000000422e-02
5.174999999999999739e-02
4.649999999999999967e-02
5.700000000000000205e-02
5.174999999999999739e-02
6.725000000000000422e-02
4.649999999999999967e-02
4.649999999999999967e-02
6.725000000000000422e-02
5.174999999999999739e-02
6.224999999999999978e-02
4.649999999999999967e-02
4.150000000000000216e-02
5.174999999999999739e-02
6.725000000000000422e-02
6.725000000000000422e-02
4.150000000000000216e-02
5.700000000000000205e-02
7.249999999999999500e-02
5.174999999999999739e-02
9.324999999999999956e-02
5.174999999999999739e-02
4.150000000000000216e-02
4.150000000000000216e-02
6.224999999999999978e-02
7.249999999999999500e-02
5.174999999999999739e-02
4.649999999999999967e-02
4.649999999999999967e-02
9.324999999999999956e-02
1.087499999999999994e-01
4.150000000000000216e-02
6.224999999999999978e-02
6.224999999999999978e-02
4.150000000000000216e-02
5.174999999999999739e-02
5.174999999999999739e-02
4.150000000000000216e-02
5.174999999999999739e-02
4.649999999999999967e-02
5.174999999999999739e-02
4.649999999999999967e-02
4.649999999999999967e-02
4.150000000000000216e-02
8.799999999999999489e-02
5.174999999999999739e-02
4.150000000000000216e-02
4.150000000000000216e-02
4.649999999999999967e-02
4.649999999999999967e-02
5.700000000000000205e-02
4.649999999999999967e-02
6.725000000000000422e-02
4.150000000000000216e-02
4.150000000000000216e-02
3.624999999999999750e-02
4.649999999999999967e-02
5.700000000000000205e-02
5.700000000000000205e-02
4.649999999999999967e-02
3.624999999999999750e-02
5.700000000000000205e-02
5.700000000000000205e-02
3.624999999999999750e-02
3.624999999999999750e-02
4.150000000000000216e-02
4.649999999999999967e-02
5.174999999999999739e-02
5.174999999999999739e-02
6.725000000000000422e-02
5.700000000000000205e-02
5.700000000000000205e-02
7.774999999999999967e-02
4.150000000000000216e-02
7.249999999999999500e-02
5.174999999999999739e-02
4.150000000000000216e-02
6.725000000000000422e-02
4.649999999999999967e-02
4.649999999999999967e-02
4.649999999999999967e-02
6.224999999999999978e-02
4.649999999999999967e-02
4.150000000000000216e-02
4.150000000000000216e-02
5.174999999999999739e-02
8.799999999999999489e-02
4.150000000000000216e-02
5.174999999999999739e-02
5.700000000000000205e-02
4.150000000000000216e-02
4.649999999999999967e-02
5.700000000000000205e-02
4.150000000000000216e-02
6.224999999999999978e-02
4.649999999999999967e-02
4.150000000000000216e-02
4.649999999999999967e-02
7.249999999999999500e-02
5.700000000000000205e-02
8.275000000000000411e-02
4.649999999999999967e-02
5.700000000000000205e-02
4.649999999999999967e-02
6.224999999999999978e-02
5.174999999999999739e-02
5.174999999999999739e-02
3.624999999999999750e-02
7.774999999999999967e-02
6.224999999999999978e-02
6.725000000000000422e-02
5.174999999999999739e-02
5.174999999999999739e-02
8.275000000000000411e-02
7.774999999999999967e-02
5.700000000000000205e-02
5.174999999999999739e-02
5.700000000000000205e-02
7.774999999999999967e-02
6.224999999999999978e-02
6.224999999999999978e-02
6.224999999999999978e-02
7.249999999999999500e-02
5.700000000000000205e-02
6.725000000000000422e-02
4.150000000000000216e-02
6.224999999999999978e-02
7.249999999999999500e-02
4.150000000000000216e-02
4.649999999999999967e-02
4.150000000000000216e-02
6.224999999999999978e-02
4.649999999999999967e-02
5.700000000000000205e-02
3.624999999999999750e-02
6.224999999999999978e-02
5.174999999999999739e-02
5.174999999999999739e-02
6.224999999999999978e-02
5.700000000000000205e-02
6.725000000000000422e-02
5.174999999999999739e-02
3.624999999999999750e-02
3.624999999999999750e-02
4.150000000000000216e-02
5.700000000000000205e-02
7.249999999999999500e-02
5.174999999999999739e-02
4.649999999999999967e-02
4.649999999999999967e-02
4.649999999999999967e-02
5.174999999999999739e-02
5.700000000000000205e-02
5.700000000000000205e-02
8.799999999999999489e-02
5.174999999999999739e-02
5.700000000000000205e-02
4.150000000000000216e-02
5.174999999999999739e-02
4.150000000000000216e-02
4.649999999999999967e-02
5.174999999999999739e-02
4.150000000000000216e-02
8.275000000000000411e-02
6.725000000000000422e-02
6.725000000000000422e-02
5.174999999999999739e-02
5.174999999999999739e-02
8.799999999999999489e-02
5.174999999999999739e-02
5.174999999999999739e-02
4.649999999999999967e-02
5.174999999999999739e-02
5.174999999999999739e-02
5.700000000000000205e-02
6.224999999999999978e-02
6.224999999999999978e-02
6.224999999999999978e-02
4.649999999999999967e-02
4.649999999999999967e-02
5.700000000000000205e-02
8.275000000000000411e-02
7.249999999999999500e-02
6.224999999999999978e-02
5.174999999999999739e-02
4.150000000000000216e-02
5.700000000000000205e-02
6.725000000000000422e-02
5.700000000000000205e-02
5.174999999999999739e-02
4.150000000000000216e-02
5.174999999999999739e-02
4.649999999999999967e-02
6.224999999999999978e-02
6.725000000000000422e-02
7.774999999999999967e-02
3.624999999999999750e-02
3.624999999999999750e-02
6.725000000000000422e-02
4.649999999999999967e-02
6.224999999999999978e-02
5.700000000000000205e-02
6.224999999999999978e-02
6.224999999999999978e-02
6.224999999999999978e-02
4.649999999999999967e-02
5.700000000000000205e-02
6.224999999999999978e-02
9.850000000000000422e-02
7.774999999999999967e-02
5.700000000000000205e-02
4.649999999999999967e-02
4.649999999999999967e-02
5.174999999999999739e-02
5.174999999999999739e-02
7.774999999999999967e-02
7.249999999999999500e-02
5.700000000000000205e-02
5.700000000000000205e-02
6.725000000000000422e-02
5.174999999999999739e-02
4.649999999999999967e-02
5.174999999999999739e-02
1.140000000000000041e-01
4.649999999999999967e-02
5.174999999999999739e-02
5.174999999999999739e-02
6.224999999999999978e-02
5.700000000000000205e-02
5.700000000000000205e-02
4.649999999999999967e-02
4.150000000000000216e-02
3.624999999999999750e-02
4.150000000000000216e-02
5.174999999999999739e-02
5.174999999999999739e-02
4.649999999999999967e-02
5.700000000000000205e-02
9.324999999999999956e-02
5.700000000000000205e-02
4.649999999999999967e-02
5.174999999999999739e-02
4.649999999999999967e-02
5.174999999999999739e-02
5.700000000000000205e-02
5.174999999999999739e-02
4.649999999999999967e-02
5.174999999999999739e-02
4.649999999999999967e-02
4.649999999999999967e-02
5.700000000000000205e-02
5.174999999999999739e-02
7.774999999999999967e-02
5.700000000000000205e-02
4.649999999999999967e-02
4.150000000000000216e-02
4.649999999999999967e-02
5.700000000000000205e-02
6.224999999999999978e-02
5.700000000000000205e-02
5.700000000000000205e-02
4.649999999999999967e-02
6.224999999999999978e-02
4.649999999999999967e-02
6.224999999999999978e-02
9.324999999999999956e-02
7.774999999999999967e-02
4.649999999999999967e-02
3.624999999999999750e-02
5.174999999999999739e-02
4.649999999999999967e-02
4.150000000000000216e-02
5.174999999999999739e-02
5.174999999999999739e-02
5.174999999999999739e-02
5.174999999999999739e-02
4.150000000000000216e-02
4.649999999999999967e-02
4.649999999999999967e-02
8.275000000000000411e-02
8.275000000000000411e-02
5.700000000000000205e-02
6.224999999999999978e-02
5.174999999999999739e-02
5.174999999999999739e-02
5.174999999999999739e-02
5.174999999999999739e-02
5.174999999999999739e-02
5.174999999999999739e-02
6.725000000000000422e-02
4.649999999999999967e-02
3.099999999999999978e-02
5.700000000000000205e-02
6.224999999999999978e-02
5.700000000000000205e-02
5.700000000000000205e-02
6.725000000000000422e-02
6.725000000000000422e-02
4.150000000000000216e-02
5.174999999999999739e-02
5.174999999999999739e-02
5.174999999999999739e-02
5.700000000000000205e-02
3.624999999999999750e-02
7.249999999999999500e-02
4.150000000000000216e-02
5.700000000000000205e-02
7.774999999999999967e-02
6.224999999999999978e-02
5.700000000000000205e-02
5.700000000000000205e-02
5.174999999999999739e-02
6.224999999999999978e-02
4.649999999999999967e-02
5.174999999999999739e-02
5.174999999999999739e-02
5.174999999999999739e-02
5.174999999999999739e-02
4.150000000000000216e-02
5.174999999999999739e-02
7.249999999999999500e-02
6.725000000000000422e-02
3.624999999999999750e-02
5.700000000000000205e-02
6.224999999999999978e-02
6.725000000000000422e-02
4.649999999999999967e-02
4.649999999999999967e-02
4.150000000000000216e-02
4.649999999999999967e-02
5.700000000000000205e-02
5.700000000000000205e-02
5.174999999999999739e-02
6.224999999999999978e-02
9.324999999999999956e-02
4.649999999999999967e-02
5.174999999999999739e-02
4.649999999999999967e-02
4.649999999999999967e-02
5.174999999999999739e-02
4.649999999999999967e-02
6.224999999999999978e-02
5.174999999999999739e-02
5.174999999999999739e-02
4.649999999999999967e-02
7.249999999999999500e-02
7.774999999999999967e-02
9.324999999999999956e-02
5.174999999999999739e-02
4.649999999999999967e-02
3.624999999999999750e-02
5.174999999999999739e-02
4.150000000000000216e-02
4.649999999999999967e-02
6.224999999999999978e-02
5.700000000000000205e-02
5.700000000000000205e-02
6.224999999999999978e-02
8.275000000000000411e-02
5.700000000000000205e-02
6.725000000000000422e-02
5.700000000000000205e-02
5.174999999999999739e-02
3.624999999999999750e-02
5.174999999999999739e-02
4.649999999999999967e-02
5.174999999999999739e-02
4.150000000000000216e-02
7.249999999999999500e-02
4.150000000000000216e-02
4.649999999999999967e-02
6.224999999999999978e-02
6.725000000000000422e-02
6.224999999999999978e-02
4.150000000000000216e-02
4.150000000000000216e-02
5.174999999999999739e-02
5.700000000000000205e-02
5.700000000000000205e-02
6.725000000000000422e-02
5.700000000000000205e-02
6.224999999999999978e-02
4.649999999999999967e-02
5.700000000000000205e-02
9.850000000000000422e-02
4.649999999999999967e-02
5.700000000000000205e-02
4.150000000000000216e-02
4.150000000000000216e-02
5.174999999999999739e-02
5.174999999999999739e-02
4.150000000000000216e-02
5.700000000000000205e-02
5.700000000000000205e-02
6.725000000000000422e-02
7.774999999999999967e-02
8.275000000000000411e-02
4.649999999999999967e-02
5.174999999999999739e-02
5.700000000000000205e-02
4.649999999999999967e-02
4.150000000000000216e-02
5.174999999999999739e-02
5.174999999999999739e-02
4.649999999999999967e-02
4.150000000000000216e-02
3.624999999999999750e-02
4.150000000000000216e-02
5.174999999999999739e-02
5.700000000000000205e-02
6.725000000000000422e-02
6.725000000000000422e-02
4.150000000000000216e-02
4.649999999999999967e-02
4.649999999999999967e-02
6.224999999999999978e-02
4.649999999999999967e-02
6.725000000000000422e-02
4.649999999999999967e-02
4.649999999999999967e-02
5.700000000000000205e-02
5.174999999999999739e-02
3.624999999999999750e-02
6.725000000000000422e-02
4.649999999999999967e-02
7.774999999999999967e-02
5.700000000000000205e-02
4.649999999999999967e-02
6.224999999999999978e-02
5.700000000000000205e-02
6.224999999999999978e-02
5.174999999999999739e-02
5.700000000000000205e-02
6.224999999999999978e-02
6.224999999999999978e-02
4.649999999999999967e-02
5.700000000000000205e-02
5.174999999999999739e-02
6.725000000000000422e-02
4.150000000000000216e-02
7.249999999999999500e-02
7.774999999999999967e-02
5.700000000000000205e-02
4.649999999999999967e-02
5.700000000000000205e-02
6.224999999999999978e-02
5.174999999999999739e-02
6.725000000000000422e-02
5.174999999999999739e-02
5.174999999999999739e-02
4.649999999999999967e-02
5.174999999999999739e-02
5.174999999999999739e-02
4.150000000000000216e-02
5.174999999999999739e-02
8.799999999999999489e-02
5.700000000000000205e-02
3.099999999999999978e-02
3.099999999999999978e-02
4.150000000000000216e-02
5.174999999999999739e-02
4.150000000000000216e-02
5.700000000000000205e-02
4.150000000000000216e-02
4.150000000000000216e-02
4.649999999999999967e-02
4.150000000000000216e-02
4.649999999999999967e-02
4.649999999999999967e-02
5.700000000000000205e-02
5.700000000000000205e-02
6.725000000000000422e-02
5.174999999999999739e-02
5.700000000000000205e-02
4.150000000000000216e-02
4.649999999999999967e-02
5.174999999999999739e-02
5.174999999999999739e-02
6.224999999999999978e-02
4.649999999999999967e-02
5.700000000000000205e-02
6.725000000000000422e-02
5.700000000000000205e-02
4.649999999999999967e-02
4.150000000000000216e-02
5.700000000000000205e-02
8.799999999999999489e-02
5.174999999999999739e-02
6.224999999999999978e-02
4.150000000000000216e-02
3.624999999999999750e-02
4.150000000000000216e-02
3.099999999999999978e-02
5.700000000000000205e-02
5.174999999999999739e-02
4.649999999999999967e-02
5.174999999999999739e-02
4.649999999999999967e-02
5.174999999999999739e-02
4.649999999999999967e-02
6.224999999999999978e-02
8.799999999999999489e-02
6.725000000000000422e-02
6.224999999999999978e-02
4.649999999999999967e-02
4.150000000000000216e-02
4.150000000000000216e-02
3.624999999999999750e-02
3.624999999999999750e-02
6.224999999999999978e-02
6.725000000000000422e-02
3.624999999999999750e-02
5.700000000000000205e-02
5.700000000000000205e-02
4.150000000000000216e-02
5.700000000000000205e-02
7.774999999999999967e-02
7.249999999999999500e-02
5.700000000000000205e-02
5.700000000000000205e-02
4.150000000000000216e-02
4.649999999999999967e-02
5.174999999999999739e-02
4.649999999999999967e-02
4.150000000000000216e-02
4.150000000000000216e-02
3.624999999999999750e-02
5.700000000000000205e-02
4.649999999999999967e-02
8.799999999999999489e-02
5.700000000000000205e-02
5.174999999999999739e-02
4.649999999999999967e-02
5.700000000000000205e-02
5.174999999999999739e-02
4.649999999999999967e-02
4.150000000000000216e-02
4.649999999999999967e-02
4.649999999999999967e-02
5.700000000000000205e-02
4.649999999999999967e-02
4.649999999999999967e-02
6.725000000000000422e-02
6.224999999999999978e-02
5.700000000000000205e-02
5.174999999999999739e-02
6.224999999999999978e-02
5.700000000000000205e-02
5.700000000000000205e-02
6.725000000000000422e-02
4.649999999999999967e-02
4.649999999999999967e-02
5.174999999999999739e-02
4.150000000000000216e-02
7.249999999999999500e-02
6.725000000000000422e-02
8.799999999999999489e-02
5.700000000000000205e-02
5.700000000000000205e-02
4.150000000000000216e-02
3.624999999999999750e-02
4.649999999999999967e-02
5.700000000000000205e-02
4.649999999999999967e-02
3.624999999999999750e-02
5.700000000000000205e-02
6.725000000000000422e-02
4.649999999999999967e-02
5.700000000000000205e-02
9.324999999999999956e-02
6.725000000000000422e-02
4.649999999999999967e-02
5.174999999999999739e-02
4.150000000000000216e-02
3.624999999999999750e-02
5.174999999999999739e-02
4.649999999999999967e-02
5.700000000000000205e-02
5.174999999999999739e-02
6.224999999999999978e-02
4.649999999999999967e-02
5.174999999999999739e-02
8.275000000000000411e-02
6.224999999999999978e-02
5.700000000000000205e-02
6.224999999999999978e-02
6.224999999999999978e-02
5.700000000000000205e-02
4.649999999999999967e-02
4.150000000000000216e-02
4.649999999999999967e-02
4.649999999999999967e-02
4.649999999999999967e-02
4.649999999999999967e-02
5.174999999999999739e-02
8.275000000000000411e-02
4.649999999999999967e-02
4.150000000000000216e-02
5.174999999999999739e-02
6.224999999999999978e-02
5.700000000000000205e-02
3.624999999999999750e-02
4.150000000000000216e-02
4.150000000000000216e-02
4.150000000000000216e-02
4.150000000000000216e-02
5.174999999999999739e-02
5.700000000000000205e-02
6.224999999999999978e-02
7.774999999999999967e-02
6.725000000000000422e-02
5.174999999999999739e-02
5.174999999999999739e-02
5.174999999999999739e-02
3.624999999999999750e-02
5.700000000000000205e-02
4.649999999999999967e-02
4.649999999999999967e-02
4.649999999999999967e-02
3.624999999999999750e-02
6.224999999999999978e-02
6.224999999999999978e-02
1.192499999999999949e-01
5.700000000000000205e-02
5.174999999999999739e-02
5.174999999999999739e-02
5.700000000000000205e-02
6.224999999999999978e-02
5.700000000000000205e-02
5.174999999999999739e-02
5.700000000000000205e-02
5.700000000000000205e-02
5.174999999999999739e-02
4.649999999999999967e-02
4.649999999999999967e-02
5.174999999999999739e-02
5.700000000000000205e-02
8.275000000000000411e-02
4.649999999999999967e-02
4.150000000000000216e-02
4.649999999999999967e-02
6.224999999999999978e-02
5.700000000000000205e-02
7.774999999999999967e-02
6.224999999999999978e-02
4.649999999999999967e-02
5.700000000000000205e-02
4.150000000000000216e-02
4.150000000000000216e-02
5.174999999999999739e-02
5.700000000000000205e-02
8.275000000000000411e-02
5.174999999999999739e-02
6.224999999999999978e-02
4.150000000000000216e-02
4.649999999999999967e-02
6.725000000000000422e-02
4.649999999999999967e-02
3.624999999999999750e-02
9.324999999999999956e-02
4.649999999999999967e-02
4.649999999999999967e-02
3.624999999999999750e-02
4.150000000000000216e-02
4.150000000000000216e-02
6.725000000000000422e-02
6.725000000000000422e-02
5.700000000000000205e-02
5.700000000000000205e-02
3.099999999999999978e-02
6.224999999999999978e-02
5.174999999999999739e-02
5.174999999999999739e-02
5.174999999999999739e-02
4.150000000000000216e-02
6.224999999999999978e-02
4.150000000000000216e-02
5.174999999999999739e-02
6.224999999999999978e-02
4.649999999999999967e-02
5.700000000000000205e-02
7.249999999999999500e-02
4.150000000000000216e-02
4.649999999999999967e-02
5.174999999999999739e-02
5.174999999999999739e-02
4.649999999999999967e-02
4.649999999999999967e-02
5.700000000000000205e-02
4.649999999999999967e-02
5.174999999999999739e-02
6.224999999999999978e-02
5.174999999999999739e-02
5.174999999999999739e-02
4.649999999999999967e-02
5.700000000000000205e-02
5.174999999999999739e-02
5.174999999999999739e-02
6.725000000000000422e-02
7.774999999999999967e-02
4.649999999999999967e-02
5.700000000000000205e-02
4.150000000000000216e-02
3.624999999999999750e-02
7.774999999999999967e-02
4.649999999999999967e-02
5.700000000000000205e-02
5.174999999999999739e-02
6.224999999999999978e-02
3.624999999999999750e-02
5.174999999999999739e-02
7.774999999999999967e-02
8.799999999999999489e-02
5.700000000000000205e-02
7.774999999999999967e-02
5.174999999999999739e-02
5.174999999999999739e-02
5.700000000000000205e-02
5.700000000000000205e-02
4.150000000000000216e-02
5.700000000000000205e-02
7.249999999999999500e-02
4.150000000000000216e-02
4.649999999999999967e-02
5.174999999999999739e-02
4.649999999999999967e-02
9.324999999999999956e-02
6.224999999999999978e-02
4.150000000000000216e-02
4.649999999999999967e-02
5.174999999999999739e-02
4.150000000000000216e-02
6.224999999999999978e-02
5.174999999999999739e-02
4.649999999999999967e-02
4.649999999999999967e-02
5.700000000000000205e-02
4.649999999999999967e-02
4.150000000000000216e-02
7.774999999999999967e-02
6.725000000000000422e-02
6.725000000000000422e-02
4.150000000000000216e-02
5.700000000000000205e-02
4.150000000000000216e-02
4.649999999999999967e-02
5.174999999999999739e-02
4.150000000000000216e-02
5.700000000000000205e-02
5.174999999999999739e-02
4.150000000000000216e-02
5.700000000000000205e-02
5.174999999999999739e-02
7.249999999999999500e-02
4.649999999999999967e-02
5.700000000000000205e-02
4.150000000000000216e-02
4.150000000000000216e-02
4.150000000000000216e-02
7.774999999999999967e-02
8.275000000000000411e-02
7.249999999999999500e-02
4.150000000000000216e-02
4.649999999999999967e-02
4.150000000000000216e-02
4.150000000000000216e-02
5.700000000000000205e-02
7.249999999999999500e-02
8.275000000000000411e-02
6.224999999999999978e-02
5.174999999999999739e-02
5.700000000000000205e-02
4.649999999999999967e-02
5.174999999999999739e-02
4.150000000000000216e-02
4.649999999999999967e-02
5.174999999999999739e-02
6.725000000000000422e-02
6.224999999999999978e-02
6.224999999999999978e-02
5.700000000000000205e-02
6.224999999999999978e-02
8.799999999999999489e-02
6.725000000000000422e-02
6.725000000000000422e-02
6.224999999999999978e-02
5.174999999999999739e-02
4.649999999999999967e-02
4.150000000000000216e-02
6.224999999999999978e-02
4.649999999999999967e-02
6.725000000000000422e-02
3.624999999999999750e-02
6.224999999999999978e-02
5.700000000000000205e-02
4.649999999999999967e-02
1.087499999999999994e-01
7.774999999999999967e-02
5.700000000000000205e-02
5.174999999999999739e-02
4.649999999999999967e-02
5.700000000000000205e-02
6.224999999999999978e-02
5.700000000000000205e-02
4.150000000000000216e-02
4.649999999999999967e-02
4.649999999999999967e-02
5.174999999999999739e-02
5.700000000000000205e-02
5.174999999999999739e-02
5.700000000000000205e-02
7.774999999999999967e-02
5.174999999999999739e-02
5.174999999999999739e-02
5.700000000000000205e-02
4.649999999999999967e-02
5.700000000000000205e-02
5.700000000000000205e-02
8.799999999999999489e-02
5.174999999999999739e-02
5.700000000000000205e-02
5.700000000000000205e-02
5.174999999999999739e-02
5.174999999999999739e-02
5.174999999999999739e-02
8.799999999999999489e-02
3.624999999999999750e-02
5.174999999999999739e-02
4.150000000000000216e-02
6.224999999999999978e-02
4.150000000000000216e-02
5.174999999999999739e-02
7.249999999999999500e-02
5.700000000000000205e-02
6.224999999999999978e-02
4.649999999999999967e-02
4.150000000000000216e-02
5.174999999999999739e-02
4.649999999999999967e-02
7.249999999999999500e-02
1.242499999999999993e-01
4.649999999999999967e-02
5.174999999999999739e-02
5.700000000000000205e-02
4.649999999999999967e-02
5.174999999999999739e-02
4.649999999999999967e-02
6.224999999999999978e-02
5.174999999999999739e-02
5.700000000000000205e-02
5.700000000000000205e-02
6.224999999999999978e-02
3.624999999999999750e-02
7.774999999999999967e-02
8.275000000000000411e-02
5.174999999999999739e-02
6.224999999999999978e-02
5.700000000000000205e-02
4.150000000000000216e-02
6.224999999999999978e-02
5.700000000000000205e-02
6.224999999999999978e-02
5.700000000000000205e-02
4.150000000000000216e-02
6.224999999999999978e-02
4.649999999999999967e-02
6.725000000000000422e-02
7.774999999999999967e-02
5.700000000000000205e-02
7.774999999999999967e-02
6.224999999999999978e-02
4.150000000000000216e-02
5.174999999999999739e-02
6.725000000000000422e-02
5.174999999999999739e-02
6.224999999999999978e-02
4.649999999999999967e-02
5.174999999999999739e-02
6.224999999999999978e-02
7.249999999999999500e-02
5.174999999999999739e-02
5.174999999999999739e-02
5.174999999999999739e-02
5.174999999999999739e-02
4.150000000000000216e-02
4.150000000000000216e-02
6.725000000000000422e-02
6.725000000000000422e-02
5.700000000000000205e-02
5.174999999999999739e-02
4.649999999999999967e-02
5.174999999999999739e-02
6.224999999999999978e-02
6.224999999999999978e-02
5.174999999999999739e-02
4.150000000000000216e-02
6.725000000000000422e-02
7.249999999999999500e-02
5.700000000000000205e-02
8.799999999999999489e-02
8.275000000000000411e-02
9.324999999999999956e-02
6.725000000000000422e-02
6.224999999999999978e-02
6.725000000000000422e-02
9.324999999999999956e-02
7.774999999999999967e-02
5.700000000000000205e-02
8.799999999999999489e-02
4.649999999999999967e-02
7.774999999999999967e-02
7.774999999999999967e-02
5.174999999999999739e-02
5.700000000000000205e-02
5.700000000000000205e-02
4.649999999999999967e-02
7.774999999999999967e-02
6.224999999999999978e-02
4.150000000000000216e-02
6.224999999999999978e-02
3.624999999999999750e-02
5.700000000000000205e-02
5.700000000000000205e-02
5.700000000000000205e-02
4.649999999999999967e-02
4.649999999999999967e-02
4.649999999999999967e-02
1.087499999999999994e-01
7.774999999999999967e-02
4.150000000000000216e-02
7.774999999999999967e-02
6.725000000000000422e-02
4.649999999999999967e-02
5.174999999999999739e-02
4.649999999999999967e-02
7.249999999999999500e-02
4.649999999999999967e-02
4.150000000000000216e-02
5.174999999999999739e-02
8.275000000000000411e-02
6.224999999999999978e-02
6.725000000000000422e-02
3.624999999999999750e-02
6.224999999999999978e-02
5.700000000000000205e-02
7.249999999999999500e-02
6.725000000000000422e-02
1.034999999999999948e-01
4.150000000000000216e-02
5.174999999999999739e-02
5.174999999999999739e-02
7.249999999999999500e-02
4.649999999999999967e-02
5.700000000000000205e-02
8.799999999999999489e-02
5.700000000000000205e-02
4.150000000000000216e-02
4.150000000000000216e-02
3.099999999999999978e-02
4.150000000000000216e-02
7.774999999999999967e-02
4.649999999999999967e-02
3.099999999999999978e-02
5.174999999999999739e-02
5.700000000000000205e-02
4.150000000000000216e-02
8.799999999999999489e-02
8.799999999999999489e-02
4.150000000000000216e-02
5.174999999999999739e-02
4.649999999999999967e-02
4.150000000000000216e-02
5.700000000000000205e-02
4.150000000000000216e-02
4.150000000000000216e-02
4.649999999999999967e-02
4.150000000000000216e-02
4.649999999999999967e-02
4.649999999999999967e-02
5.174999999999999739e-02
8.799999999999999489e-02
5.174999999999999739e-02
4.649999999999999967e-02
4.150000000000000216e-02
5.174999999999999739e-02
4.150000000000000216e-02
5.174999999999999739e-02
4.649999999999999967e-02
3.624999999999999750e-02
6.224999999999999978e-02
6.725000000000000422e-02
5.174999999999999739e-02
6.224999999999999978e-02
3.624999999999999750e-02
7.774999999999999967e-02
9.850000000000000422e-02
4.649999999999999967e-02
4.649999999999999967e-02
3.624999999999999750e-02
4.150000000000000216e-02
3.099999999999999978e-02
4.150000000000000216e-02
4.649999999999999967e-02
4.649999999999999967e-02
5.174999999999999739e-02
3.624999999999999750e-02
5.700000000000000205e-02
5.174999999999999739e-02
4.150000000000000216e-02
1.087499999999999994e-01
5.174999999999999739e-02
4.649999999999999967e-02
6.224999999999999978e-02
4.649999999999999967e-02
5.700000000000000205e-02
5.174999999999999739e-02
4.649999999999999967e-02
7.249999999999999500e-02
5.174999999999999739e-02
5.700000000000000205e-02
6.224999999999999978e-02
6.224999999999999978e-02
9.324999999999999956e-02
6.224999999999999978e-02
4.649999999999999967e-02
3.099999999999999978e-02
3.099999999999999978e-02
4.649999999999999967e-02
5.174999999999999739e-02
5.174999999999999739e-02
6.224999999999999978e-02
4.649999999999999967e-02
4.649999999999999967e-02
4.649999999999999967e-02
6.224999999999999978e-02
6.224999999999999978e-02
5.700000000000000205e-02
6.224999999999999978e-02
3.624999999999999750e-02
3.099999999999999978e-02
5.174999999999999739e-02
4.150000000000000216e-02
7.249999999999999500e-02
3.624999999999999750e-02
6.224999999999999978e-02
3.624999999999999750e-02
4.649999999999999967e-02
5.700000000000000205e-02
7.249999999999999500e-02
3.099999999999999978e-02
3.624999999999999750e-02
4.649999999999999967e-02
4.150000000000000216e-02
5.174999999999999739e-02
5.174999999999999739e-02
5.174999999999999739e-02
4.649999999999999967e-02
4.150000000000000216e-02
5.700000000000000205e-02
4.649999999999999967e-02
7.774999999999999967e-02
7.774999999999999967e-02
6.224999999999999978e-02
4.649999999999999967e-02
3.624999999999999750e-02
5.174999999999999739e-02
5.174999999999999739e-02
5.174999999999999739e-02
5.700000000000000205e-02
4.649999999999999967e-02
6.725000000000000422e-02
3.099999999999999978e-02
5.174999999999999739e-02
4.150000000000000216e-02
4.649999999999999967e-02
9.850000000000000422e-02
6.224999999999999978e-02
4.150000000000000216e-02
4.649999999999999967e-02
5.700000000000000205e-02
4.150000000000000216e-02
5.700000000000000205e-02
5.700000000000000205e-02
5.174999999999999739e-02
4.649999999999999967e-02
4.150000000000000216e-02
3.624999999999999750e-02
5.700000000000000205e-02
5.174999999999999739e-02
9.324999999999999956e-02
5.174999999999999739e-02
5.174999999999999739e-02
4.150000000000000216e-02
4.649999999999999967e-02
5.700000000000000205e-02
4.150000000000000216e-02
4.649999999999999967e-02
5.174999999999999739e-02
4.649999999999999967e-02
4.649999999999999967e-02
4.150000000000000216e-02
5.174999999999999739e-02
3.624999999999999750e-02
6.725000000000000422e-02
6.725000000000000422e-02
5.700000000000000205e-02
4.649999999999999967e-02
5.700000000000000205e-02
5.700000000000000205e-02
4.150000000000000216e-02
3.624999999999999750e-02
5.174999999999999739e-02
4.649999999999999967e-02
5.174999999999999739e-02
3.099999999999999978e-02
3.624999999999999750e-02
3.624999999999999750e-02
4.150000000000000216e-02
1.034999999999999948e-01
4.649999999999999967e-02
4.649999999999999967e-02
3.624999999999999750e-02
4.150000000000000216e-02
4.649999999999999967e-02
5.174999999999999739e-02
4.649999999999999967e-02
5.174999999999999739e-02
5.174999999999999739e-02
5.700000000000000205e-02
5.174999999999999739e-02
4.649999999999999967e-02
5.174999999999999739e-02
3.624999999999999750e-02
6.725000000000000422e-02
4.150000000000000216e-02
4.649999999999999967e-02
5.700000000000000205e-02
5.174999999999999739e-02
5.700000000000000205e-02
5.174999999999999739e-02
5.174999999999999739e-02
3.624999999999999750e-02
4.649999999999999967e-02
5.700000000000000205e-02
4.150000000000000216e-02
4.649999999999999967e-02
8.799999999999999489e-02
4.150000000000000216e-02
8.799999999999999489e-02
6.224999999999999978e-02
6.725000000000000422e-02
5.174999999999999739e-02
5.174999999999999739e-02
5.174999999999999739e-02
4.649999999999999967e-02
4.649999999999999967e-02
6.725000000000000422e-02
3.099999999999999978e-02
4.150000000000000216e-02
5.700000000000000205e-02
6.224999999999999978e-02
4.649999999999999967e-02
7.249999999999999500e-02
5.700000000000000205e-02
5.700000000000000205e-02
3.624999999999999750e-02
4.150000000000000216e-02
5.174999999999999739e-02
4.649999999999999967e-02
4.649999999999999967e-02
5.174999999999999739e-02
4.150000000000000216e-02
4.150000000000000216e-02
5.174999999999999739e-02
4.649999999999999967e-02
4.649999999999999967e-02
9.850000000000000422e-02
4.649999999999999967e-02
5.700000000000000205e-02
5.174999999999999739e-02
4.150000000000000216e-02
4.150000000000000216e-02
4.649999999999999967e-02
5.174999999999999739e-02
6.725000000000000422e-02
3.099999999999999978e-02
4.649999999999999967e-02
5.174999999999999739e-02
5.174999999999999739e-02
5.700000000000000205e-02
8.799999999999999489e-02
3.099999999999999978e-02
4.649999999999999967e-02
5.700000000000000205e-02
4.649999999999999967e-02
4.150000000000000216e-02
5.174999999999999739e-02
6.224999999999999978e-02
4.649999999999999967e-02
4.150000000000000216e-02
5.700000000000000205e-02
3.099999999999999978e-02
5.174999999999999739e-02
5.700000000000000205e-02
8.275000000000000411e-02
6.224999999999999978e-02
4.150000000000000216e-02
3.624999999999999750e-02
5.174999999999999739e-02
5.174999999999999739e-02
4.649999999999999967e-02
4.649999999999999967e-02
5.700000000000000205e-02
6.224999999999999978e-02
5.174999999999999739e-02
5.174999999999999739e-02
6.224999999999999978e-02
6.725000000000000422e-02
9.850000000000000422e-02
4.649999999999999967e-02
4.150000000000000216e-02
4.649999999999999967e-02
3.624999999999999750e-02
5.174999999999999739e-02
4.649999999999999967e-02
4.649999999999999967e-02
6.224999999999999978e-02
4.150000000000000216e-02
5.700000000000000205e-02
4.150000000000000216e-02
3.624999999999999750e-02
4.150000000000000216e-02
9.324999999999999956e-02
9.850000000000000422e-02
6.725000000000000422e-02
4.649999999999999967e-02
4.150000000000000216e-02
5.174999999999999739e-02
3.099999999999999978e-02
5.174999999999999739e-02
5.174999999999999739e-02
3.624999999999999750e-02
6.224999999999999978e-02
4.649999999999999967e-02
4.649999999999999967e-02
4.649999999999999967e-02
7.249999999999999500e-02
5.174999999999999739e-02
6.725000000000000422e-02
4.649999999999999967e-02
5.174999999999999739e-02
4.150000000000000216e-02
3.099999999999999978e-02
4.150000000000000216e-02
5.174999999999999739e-02
4.150000000000000216e-02
5.700000000000000205e-02
4.649999999999999967e-02
4.649999999999999967e-02
5.700000000000000205e-02
4.150000000000000216e-02
5.174999999999999739e-02
4.150000000000000216e-02
4.649999999999999967e-02
8.799999999999999489e-02
5.700000000000000205e-02
3.624999999999999750e-02
6.725000000000000422e-02
5.700000000000000205e-02
5.700000000000000205e-02
5.174999999999999739e-02
6.224999999999999978e-02
4.649999999999999967e-02
3.099999999999999978e-02
5.174999999999999739e-02
4.649999999999999967e-02
4.649999999999999967e-02
4.150000000000000216e-02
4.649999999999999967e-02
8.275000000000000411e-02
8.799999999999999489e-02
4.649999999999999967e-02
4.649999999999999967e-02
5.174999999999999739e-02
5.700000000000000205e-02
7.249999999999999500e-02
5.700000000000000205e-02
5.174999999999999739e-02
3.624999999999999750e-02
4.649999999999999967e-02
4.150000000000000216e-02
5.174999999999999739e-02
4.649999999999999967e-02
4.649999999999999967e-02
7.249999999999999500e-02
7.774999999999999967e-02
4.649999999999999967e-02
4.649999999999999967e-02
3.624999999999999750e-02
4.649999999999999967e-02
4.150000000000000216e-02
4.649999999999999967e-02
6.725000000000000422e-02
4.150000000000000216e-02
6.725000000000000422e-02
3.099999999999999978e-02
5.700000000000000205e-02
5.174999999999999739e-02
5.174999999999999739e-02
1.034999999999999948e-01
6.725000000000000422e-02
4.649999999999999967e-02
4.649999999999999967e-02
4.150000000000000216e-02
4.150000000000000216e-02
5.174999999999999739e-02
4.150000000000000216e-02
4.150000000000000216e-02
5.174999999999999739e-02
5.174999999999999739e-02
4.649999999999999967e-02
4.649999999999999967e-02
5.700000000000000205e-02
7.249999999999999500e-02
4.649999999999999967e-02
3.624999999999999750e-02
6.224999999999999978e-02
3.099999999999999978e-02
3.624999999999999750e-02
4.150000000000000216e-02
5.174999999999999739e-02
5.174999999999999739e-02
5.174999999999999739e-02
4.649999999999999967e-02
5.700000000000000205e-02
5.700000000000000205e-02
5.174999999999999739e-02
7.249999999999999500e-02
4.150000000000000216e-02
3.624999999999999750e-02
4.649999999999999967e-02
5.700000000000000205e-02
5.174999999999999739e-02
4.150000000000000216e-02
4.649999999999999967e-02
4.150000000000000216e-02
5.700000000000000205e-02
4.649999999999999967e-02
3.624999999999999750e-02
4.150000000000000216e-02
5.174999999999999739e-02
5.174999999999999739e-02
7.774999999999999967e-02
7.249999999999999500e-02
5.174999999999999739e-02
6.725000000000000422e-02
6.224999999999999978e-02
4.150000000000000216e-02
7.249999999999999500e-02
4.150000000000000216e-02
6.224999999999999978e-02
5.700000000000000205e-02
5.700000000000000205e-02
4.649999999999999967e-02
4.649999999999999967e-02
5.174999999999999739e-02
4.649999999999999967e-02
4.150000000000000216e-02
1.034999999999999948e-01
5.700000000000000205e-02
5.174999999999999739e-02
3.624999999999999750e-02
6.725000000000000422e-02
4.150000000000000216e-02
5.174999999999999739e-02
3.624999999999999750e-02
5.174999999999999739e-02
4.649999999999999967e-02
3.099999999999999978e-02
5.174999999999999739e-02
3.624999999999999750e-02
3.624999999999999750e-02
4.649999999999999967e-02
8.799999999999999489e-02
4.649999999999999967e-02
4.150000000000000216e-02
4.649999999999999967e-02
4.150000000000000216e-02
3.624999999999999750e-02
4.649999999999999967e-02
6.725000000000000422e-02
3.099999999999999978e-02
4.150000000000000216e-02
3.624999999999999750e-02
3.624999999999999750e-02
5.700000000000000205e-02
4.649999999999999967e-02
1.034999999999999948e-01
3.624999999999999750e-02
4.150000000000000216e-02
4.150000000000000216e-02
3.624999999999999750e-02
4.649999999999999967e-02
4.649999999999999967e-02
4.150000000000000216e-02
3.624999999999999750e-02
3.099999999999999978e-02
4.150000000000000216e-02
5.174999999999999739e-02
6.224999999999999978e-02
1.034999999999999948e-01
7.249999999999999500e-02
7.774999999999999967e-02
5.174999999999999739e-02
4.649999999999999967e-02
6.224999999999999978e-02
3.624999999999999750e-02
6.224999999999999978e-02
4.649999999999999967e-02
5.700000000000000205e-02
3.624999999999999750e-02
4.150000000000000216e-02
5.174999999999999739e-02
4.150000000000000216e-02
6.224999999999999978e-02
4.150000000000000216e-02
5.174999999999999739e-02
7.249999999999999500e-02
5.700000000000000205e-02
4.150000000000000216e-02
4.649999999999999967e-02
4.649999999999999967e-02
4.150000000000000216e-02
5.700000000000000205e-02
4.649999999999999967e-02
5.700000000000000205e-02
4.649999999999999967e-02
4.150000000000000216e-02
4.150000000000000216e-02
5.174999999999999739e-02
5.174999999999999739e-02
4.649999999999999967e-02
8.275000000000000411e-02
6.725000000000000422e-02
5.174999999999999739e-02
5.174999999999999739e-02
4.649999999999999967e-02
4.649999999999999967e-02
4.150000000000000216e-02
5.174999999999999739e-02
4.649999999999999967e-02
4.649999999999999967e-02
4.649999999999999967e-02
6.224999999999999978e-02
5.700000000000000205e-02
4.150000000000000216e-02
6.224999999999999978e-02
4.649999999999999967e-02
5.174999999999999739e-02
4.150000000000000216e-02
5.174999999999999739e-02
3.099999999999999978e-02
4.649999999999999967e-02
5.174999999999999739e-02
4.649999999999999967e-02
6.725000000000000422e-02
5.174999999999999739e-02
4.150000000000000216e-02
4.649999999999999967e-02
5.700000000000000205e-02
4.150000000000000216e-02
8.275000000000000411e-02
5.700000000000000205e-02
3.099999999999999978e-02
5.174999999999999739e-02
5.700000000000000205e-02
4.150000000000000216e-02
4.150000000000000216e-02
4.649999999999999967e-02
4.649999999999999967e-02
4.150000000000000216e-02
4.150000000000000216e-02
5.700000000000000205e-02
4.649999999999999967e-02
4.649999999999999967e-02
4.649999999999999967e-02
4.649999999999999967e-02
5.700000000000000205e-02
5.174999999999999739e-02
4.150000000000000216e-02
5.174999999999999739e-02
5.700000000000000205e-02
4.150000000000000216e-02
3.624999999999999750e-02
4.649999999999999967e-02
5.174999999999999739e-02
4.150000000000000216e-02
3.624999999999999750e-02
4.649999999999999967e-02
4.649999999999999967e-02
5.174999999999999739e-02
5.700000000000000205e-02
1.034999999999999948e-01
4.649999999999999967e-02
5.700000000000000205e-02
4.150000000000000216e-02
5.174999999999999739e-02
3.624999999999999750e-02
5.174999999999999739e-02
5.700000000000000205e-02
6.224999999999999978e-02
5.174999999999999739e-02
3.099999999999999978e-02
3.624999999999999750e-02
5.700000000000000205e-02
5.700000000000000205e-02
1.034999999999999948e-01
5.700000000000000205e-02
4.649999999999999967e-02
6.224999999999999978e-02
7.774999999999999967e-02
5.700000000000000205e-02
4.649999999999999967e-02
4.649999999999999967e-02
5.174999999999999739e-02
5.174999999999999739e-02
5.700000000000000205e-02
4.649999999999999967e-02
5.174999999999999739e-02
7.774999999999999967e-02
6.224999999999999978e-02
3.624999999999999750e-02
3.624999999999999750e-02
4.649999999999999967e-02
4.150000000000000216e-02
4.649999999999999967e-02
4.649999999999999967e-02
4.150000000000000216e-02
4.150000000000000216e-02
3.624999999999999750e-02
4.649999999999999967e-02
6.725000000000000422e-02
6.725000000000000422e-02
1.087499999999999994e-01
6.725000000000000422e-02
4.150000000000000216e-02
4.649999999999999967e-02
4.150000000000000216e-02
5.174999999999999739e-02
6.224999999999999978e-02
5.700000000000000205e-02
5.700000000000000205e-02
4.649999999999999967e-02
4.150000000000000216e-02
5.174999999999999739e-02
3.624999999999999750e-02
6.224999999999999978e-02
4.150000000000000216e-02
5.700000000000000205e-02
4.649999999999999967e-02
4.150000000000000216e-02
5.174999999999999739e-02
5.174999999999999739e-02
5.174999999999999739e-02
5.700000000000000205e-02
4.649999999999999967e-02
4.649999999999999967e-02
4.649999999999999967e-02
3.624999999999999750e-02
5.174999999999999739e-02
5.174999999999999739e-02
5.174999999999999739e-02
4.150000000000000216e-02
9.324999999999999956e-02
6.725000000000000422e-02
3.624999999999999750e-02
5.174999999999999739e-02
5.700000000000000205e-02
6.224999999999999978e-02
6.224999999999999978e-02
6.224999999999999978e-02
6.725000000000000422e-02
5.700000000000000205e-02
5.174999999999999739e-02
6.224999999999999978e-02
4.649999999999999967e-02
4.649999999999999967e-02
4.150000000000000216e-02
7.249999999999999500e-02
3.624999999999999750e-02
4.150000000000000216e-02
4.649999999999999967e-02
5.700000000000000205e-02
6.224999999999999978e-02
6.224999999999999978e-02
7.249999999999999500e-02
2.599999999999999881e-02
5.700000000000000205e-02
5.174999999999999739e-02
3.624999999999999750e-02
5.174999999999999739e-02
6.725000000000000422e-02
4.649999999999999967e-02
4.150000000000000216e-02
4.649999999999999967e-02
5.700000000000000205e-02
5.174999999999999739e-02
5.700000000000000205e-02
8.275000000000000411e-02
5.700000000000000205e-02
4.649999999999999967e-02
5.700000000000000205e-02
4.649999999999999967e-02
5.174999999999999739e-02
8.275000000000000411e-02
6.224999999999999978e-02
3.099999999999999978e-02
4.150000000000000216e-02
4.649999999999999967e-02
4.150000000000000216e-02
5.700000000000000205e-02
4.150000000000000216e-02
4.649999999999999967e-02
4.150000000000000216e-02
6.224999999999999978e-02
4.150000000000000216e-02
7.774999999999999967e-02
6.725000000000000422e-02
5.174999999999999739e-02
4.150000000000000216e-02
7.249999999999999500e-02
5.700000000000000205e-02
4.649999999999999967e-02
7.249999999999999500e-02
4.649999999999999967e-02
3.624999999999999750e-02
5.174999999999999739e-02
6.224999999999999978e-02
1.192499999999999949e-01
5.174999999999999739e-02
4.150000000000000216e-02
4.150000000000000216e-02
5.700000000000000205e-02
3.522500000000000075e-01
4.142500000000000071e-01
2.434999999999999942e-01
1.449999999999999900e-01
1.502499999999999947e-01
5.174999999999999739e-02
1.034999999999999948e-01
8.275000000000000411e-02
5.174999999999999739e-02
8.275000000000000411e-02
7.249999999999999500e-02
7.774999999999999967e-02
4.150000000000000216e-02
5.700000000000000205e-02
7.249999999999999500e-02
7.249999999999999500e-02
7.249999999999999500e-02
3.624999999999999750e-02
5.700000000000000205e-02
4.150000000000000216e-02
4.150000000000000216e-02
7.774999999999999967e-02
6.224999999999999978e-02
4.649999999999999967e-02
3.624999999999999750e-02
4.649999999999999967e-02
4.649999999999999967e-02
3.624999999999999750e-02
7.249999999999999500e-02
5.174999999999999739e-02
5.700000000000000205e-02
3.099999999999999978e-02
4.150000000000000216e-02
4.150000000000000216e-02
3.624999999999999750e-02
7.774999999999999967e-02
5.174999999999999739e-02
4.150000000000000216e-02
5.700000000000000205e-02
5.174999999999999739e-02
4.649999999999999967e-02
6.725000000000000422e-02
4.649999999999999967e-02
5.174999999999999739e-02
5.174999999999999739e-02
6.725000000000000422e-02
5.174999999999999739e-02
5.174999999999999739e-02
5.174999999999999739e-02
4.649999999999999967e-02
6.725000000000000422e-02
5.174999999999999739e-02
5.174999999999999739e-02
5.174999999999999739e-02
4.150000000000000216e-02
5.174999999999999739e-02
4.649999999999999967e-02
3.624999999999999750e-02
4.150000000000000216e-02
5.700000000000000205e-02
3.624999999999999750e-02
3.624999999999999750e-02
7.249999999999999500e-02
7.774999999999999967e-02
1.087499999999999994e-01
6.725000000000000422e-02
3.624999999999999750e-02
4.150000000000000216e-02
5.700000000000000205e-02
4.649999999999999967e-02
4.649999999999999967e-02
4.150000000000000216e-02
5.700000000000000205e-02
4.150000000000000216e-02
5.174999999999999739e-02
5.174999999999999739e-02
6.725000000000000422e-02
1.087499999999999994e-01
5.700000000000000205e-02
3.624999999999999750e-02
4.150000000000000216e-02
5.700000000000000205e-02
3.099999999999999978e-02
4.649999999999999967e-02
5.174999999999999739e-02
4.150000000000000216e-02
3.624999999999999750e-02
4.649999999999999967e-02
4.150000000000000216e-02
4.150000000000000216e-02
5.174999999999999739e-02
8.275000000000000411e-02
4.649999999999999967e-02
5.174999999999999739e-02
5.700000000000000205e-02
3.624999999999999750e-02
3.624999999999999750e-02
4.150000000000000216e-02
4.150000000000000216e-02
4.649999999999999967e-02
5.174999999999999739e-02
4.150000000000000216e-02
5.174999999999999739e-02
4.150000000000000216e-02
3.624999999999999750e-02
6.725000000000000422e-02
6.224999999999999978e-02
4.150000000000000216e-02
3.624999999999999750e-02
3.624999999999999750e-02
6.224999999999999978e-02
4.649999999999999967e-02
4.150000000000000216e-02
6.224999999999999978e-02
3.624999999999999750e-02
4.150000000000000216e-02
5.700000000000000205e-02
6.224999999999999978e-02
7.249999999999999500e-02
4.649999999999999967e-02
5.174999999999999739e-02
4.649999999999999967e-02
4.649999999999999967e-02
4.150000000000000216e-02
5.700000000000000205e-02
3.624999999999999750e-02
7.249999999999999500e-02
5.174999999999999739e-02
6.224999999999999978e-02
4.649999999999999967e-02
3.624999999999999750e-02
5.700000000000000205e-02
3.624999999999999750e-02
5.174999999999999739e-02
3.624999999999999750e-02
5.174999999999999739e-02
4.649999999999999967e-02
4.150000000000000216e-02
4.649999999999999967e-02
5.174999999999999739e-02
4.649999999999999967e-02
5.174999999999999739e-02
7.774999999999999967e-02
5.174999999999999739e-02
1.242499999999999993e-01
8.275000000000000411e-02
4.150000000000000216e-02
6.725000000000000422e-02
3.624999999999999750e-02
4.150000000000000216e-02
4.649999999999999967e-02
5.174999999999999739e-02
3.099999999999999978e-02
4.150000000000000216e-02
3.099999999999999978e-02
4.150000000000000216e-02
4.150000000000000216e-02
4.150000000000000216e-02
7.249999999999999500e-02
6.224999999999999978e-02
3.624999999999999750e-02
4.150000000000000216e-02
4.150000000000000216e-02
3.624999999999999750e-02
4.649999999999999967e-02
3.624999999999999750e-02
5.700000000000000205e-02
5.174999999999999739e-02
4.649999999999999967e-02
3.624999999999999750e-02
2.599999999999999881e-02
5.174999999999999739e-02
6.224999999999999978e-02
7.249999999999999500e-02
8.799999999999999489e-02
6.224999999999999978e-02
5.174999999999999739e-02
5.700000000000000205e-02
5.700000000000000205e-02
4.649999999999999967e-02
4.150000000000000216e-02
3.624999999999999750e-02
5.174999999999999739e-02
4.649999999999999967e-02
6.725000000000000422e-02
4.150000000000000216e-02
4.649999999999999967e-02
4.649999999999999967e-02
5.174999999999999739e-02
5.174999999999999739e-02
7.249999999999999500e-02
4.649999999999999967e-02
4.649999999999999967e-02
4.150000000000000216e-02
3.624999999999999750e-02
5.174999999999999739e-02
5.700000000000000205e-02
3.624999999999999750e-02
4.649999999999999967e-02
4.649999999999999967e-02
4.150000000000000216e-02
4.649999999999999967e-02
4.150000000000000216e-02
4.649999999999999967e-02
4.649999999999999967e-02
8.275000000000000411e-02
5.174999999999999739e-02
6.224999999999999978e-02
5.174999999999999739e-02
4.649999999999999967e-02
4.649999999999999967e-02
3.624999999999999750e-02
4.150000000000000216e-02
4.150000000000000216e-02
3.099999999999999978e-02
4.150000000000000216e-02
3.624999999999999750e-02
4.649999999999999967e-02
4.649999999999999967e-02
9.324999999999999956e-02
9.324999999999999956e-02
5.174999999999999739e-02
4.150000000000000216e-02
4.649999999999999967e-02
3.624999999999999750e-02
3.624999999999999750e-02
3.624999999999999750e-02
5.174999999999999739e-02
3.624999999999999750e-02
6.725000000000000422e-02
6.224999999999999978e-02
5.174999999999999739e-02
5.174999999999999739e-02
4.150000000000000216e-02
5.174999999999999739e-02
1.034999999999999948e-01
4.150000000000000216e-02
4.649999999999999967e-02
5.700000000000000205e-02
5.174999999999999739e-02
4.649999999999999967e-02
4.649999999999999967e-02
4.649999999999999967e-02
4.150000000000000216e-02
4.150000000000000216e-02
7.249999999999999500e-02
9.850000000000000422e-02
6.725000000000000422e-02
4.150000000000000216e-02
4.649999999999999967e-02
6.725000000000000422e-02
8.799999999999999489e-02
1.192499999999999949e-01
4.649999999999999967e-02
6.725000000000000422e-02
4.150000000000000216e-02
5.700000000000000205e-02
5.174999999999999739e-02
4.649999999999999967e-02
4.649999999999999967e-02
3.624999999999999750e-02
4.150000000000000216e-02
3.624999999999999750e-02
3.624999999999999750e-02
3.624999999999999750e-02
7.249999999999999500e-02
8.275000000000000411e-02
4.649999999999999967e-02
5.700000000000000205e-02
3.624999999999999750e-02
4.150000000000000216e-02
4.649999999999999967e-02
3.624999999999999750e-02
6.224999999999999978e-02
5.174999999999999739e-02
5.174999999999999739e-02
4.649999999999999967e-02
3.099999999999999978e-02
4.150000000000000216e-02
6.224999999999999978e-02
6.725000000000000422e-02
1.034999999999999948e-01
5.700000000000000205e-02
4.150000000000000216e-02
4.150000000000000216e-02
5.174999999999999739e-02
4.649999999999999967e-02
4.150000000000000216e-02
4.649999999999999967e-02
4.150000000000000216e-02
5.700000000000000205e-02
5.700000000000000205e-02
4.150000000000000216e-02
4.150000000000000216e-02
9.324999999999999956e-02
6.725000000000000422e-02
5.700000000000000205e-02
3.099999999999999978e-02
5.174999999999999739e-02
4.150000000000000216e-02
4.150000000000000216e-02
5.700000000000000205e-02
4.150000000000000216e-02
5.700000000000000205e-02
3.624999999999999750e-02
3.624999999999999750e-02
4.649999999999999967e-02
7.774999999999999967e-02
7.774999999999999967e-02
4.150000000000000216e-02
4.150000000000000216e-02
4.649999999999999967e-02
4.649999999999999967e-02
5.174999999999999739e-02
3.099999999999999978e-02
6.224999999999999978e-02
5.174999999999999739e-02
4.150000000000000216e-02
3.624999999999999750e-02
5.174999999999999739e-02
5.700000000000000205e-02
1.034999999999999948e-01
7.774999999999999967e-02
5.174999999999999739e-02
7.249999999999999500e-02
4.649999999999999967e-02
4.649999999999999967e-02
4.649999999999999967e-02
4.150000000000000216e-02
3.624999999999999750e-02
4.649999999999999967e-02
4.150000000000000216e-02
6.725000000000000422e-02
4.649999999999999967e-02
5.174999999999999739e-02
3.099999999999999978e-02
6.224999999999999978e-02
6.725000000000000422e-02
5.700000000000000205e-02
4.150000000000000216e-02
3.624999999999999750e-02
5.700000000000000205e-02
4.150000000000000216e-02
3.099999999999999978e-02
4.649999999999999967e-02
3.624999999999999750e-02
4.150000000000000216e-02
4.649999999999999967e-02
5.700000000000000205e-02
5.174999999999999739e-02
3.624999999999999750e-02
5.174999999999999739e-02
5.174999999999999739e-02
7.774999999999999967e-02
4.649999999999999967e-02
6.224999999999999978e-02
4.150000000000000216e-02
4.649999999999999967e-02
4.649999999999999967e-02
5.174999999999999739e-02
5.700000000000000205e-02
6.725000000000000422e-02
5.174999999999999739e-02
4.649999999999999967e-02
4.150000000000000216e-02
3.624999999999999750e-02
5.174999999999999739e-02
6.725000000000000422e-02
4.649999999999999967e-02
8.275000000000000411e-02
5.174999999999999739e-02
5.174999999999999739e-02
4.649999999999999967e-02
4.150000000000000216e-02
4.150000000000000216e-02
3.624999999999999750e-02
5.174999999999999739e-02
3.624999999999999750e-02
5.700000000000000205e-02
4.649999999999999967e-02
5.174999999999999739e-02
5.174999999999999739e-02
5.174999999999999739e-02
5.700000000000000205e-02
9.324999999999999956e-02
4.649999999999999967e-02
5.174999999999999739e-02
4.150000000000000216e-02
5.700000000000000205e-02
6.725000000000000422e-02
5.700000000000000205e-02
6.224999999999999978e-02
6.224999999999999978e-02
3.099999999999999978e-02
4.150000000000000216e-02
4.649999999999999967e-02
4.649999999999999967e-02
3.624999999999999750e-02
5.700000000000000205e-02
6.224999999999999978e-02
8.275000000000000411e-02
5.174999999999999739e-02
6.224999999999999978e-02
3.099999999999999978e-02
5.174999999999999739e-02
3.624999999999999750e-02
5.700000000000000205e-02
3.624999999999999750e-02
3.624999999999999750e-02
5.700000000000000205e-02
3.624999999999999750e-02
3.624999999999999750e-02
3.624999999999999750e-02
3.624999999999999750e-02
3.624999999999999750e-02
8.275000000000000411e-02
5.174999999999999739e-02
4.649999999999999967e-02
5.174999999999999739e-02
4.150000000000000216e-02
4.649999999999999967e-02
4.150000000000000216e-02
6.224999999999999978e-02
4.150000000000000216e-02
5.700000000000000205e-02
4.649999999999999967e-02
4.649999999999999967e-02
3.099999999999999978e-02
4.649999999999999967e-02
4.150000000000000216e-02
4.649999999999999967e-02
6.725000000000000422e-02
5.700000000000000205e-02
4.150000000000000216e-02
4.150000000000000216e-02
5.174999999999999739e-02
6.224999999999999978e-02
5.174999999999999739e-02
4.150000000000000216e-02
3.624999999999999750e-02
4.649999999999999967e-02
5.174999999999999739e-02
5.700000000000000205e-02
4.150000000000000216e-02
6.224999999999999978e-02
4.150000000000000216e-02
4.649999999999999967e-02
7.249999999999999500e-02
5.700000000000000205e-02
6.224999999999999978e-02
5.700000000000000205e-02
4.649999999999999967e-02
5.174999999999999739e-02
7.249999999999999500e-02
5.174999999999999739e-02
5.700000000000000205e-02
5.700000000000000205e-02
4.649999999999999967e-02
4.150000000000000216e-02
5.174999999999999739e-02
4.649999999999999967e-02
4.649999999999999967e-02
6.224999999999999978e-02
6.224999999999999978e-02
3.099999999999999978e-02
5.700000000000000205e-02
3.099999999999999978e-02
6.725000000000000422e-02
4.649999999999999967e-02
3.624999999999999750e-02
4.150000000000000216e-02
4.649999999999999967e-02
4.150000000000000216e-02
4.150000000000000216e-02
3.099999999999999978e-02
4.150000000000000216e-02
6.725000000000000422e-02
6.725000000000000422e-02
5.700000000000000205e-02
5.700000000000000205e-02
3.624999999999999750e-02
6.725000000000000422e-02
6.224999999999999978e-02
4.150000000000000216e-02
5.700000000000000205e-02
4.649999999999999967e-02
4.649999999999999967e-02
5.700000000000000205e-02
5.174999999999999739e-02
3.624999999999999750e-02
6.224999999999999978e-02
4.150000000000000216e-02
8.799999999999999489e-02
5.174999999999999739e-02
4.150000000000000216e-02
5.700000000000000205e-02
5.174999999999999739e-02
5.174999999999999739e-02
3.624999999999999750e-02
4.649999999999999967e-02
4.649999999999999967e-02
6.224999999999999978e-02
5.174999999999999739e-02
4.649999999999999967e-02
4.649999999999999967e-02
4.649999999999999967e-02
4.649999999999999967e-02
6.224999999999999978e-02
3.624999999999999750e-02
5.700000000000000205e-02
3.624999999999999750e-02
5.174999999999999739e-02
5.174999999999999739e-02
4.150000000000000216e-02
4.649999999999999967e-02
4.649999999999999967e-02
4.150000000000000216e-02
4.649999999999999967e-02
7.774999999999999967e-02
3.099999999999999978e-02
5.700000000000000205e-02
5.700000000000000205e-02
4.150000000000000216e-02
5.700000000000000205e-02
4.649999999999999967e-02
5.174999999999999739e-02
4.150000000000000216e-02
4.649999999999999967e-02
6.224999999999999978e-02
7.249999999999999500e-02
3.624999999999999750e-02
3.624999999999999750e-02
5.700000000000000205e-02
6.725000000000000422e-02
4.649999999999999967e-02
6.224999999999999978e-02
4.649999999999999967e-02
4.649999999999999967e-02
4.150000000000000216e-02
5.700000000000000205e-02
4.649999999999999967e-02
6.224999999999999978e-02
4.150000000000000216e-02
5.174999999999999739e-02
3.099999999999999978e-02
4.649999999999999967e-02
5.700000000000000205e-02
9.850000000000000422e-02
6.224999999999999978e-02
3.624999999999999750e-02
4.649999999999999967e-02
5.700000000000000205e-02
3.624999999999999750e-02
4.649999999999999967e-02
4.649999999999999967e-02
4.150000000000000216e-02
4.150000000000000216e-02
4.649999999999999967e-02
5.700000000000000205e-02
5.174999999999999739e-02
4.150000000000000216e-02
3.099999999999999978e-02
6.224999999999999978e-02
6.725000000000000422e-02
5.700000000000000205e-02
3.624999999999999750e-02
4.150000000000000216e-02
5.174999999999999739e-02
4.150000000000000216e-02
3.099999999999999978e-02
5.174999999999999739e-02
3.099999999999999978e-02
4.649999999999999967e-02
4.150000000000000216e-02
3.624999999999999750e-02
4.649999999999999967e-02
4.150000000000000216e-02
5.700000000000000205e-02
1.087499999999999994e-01
5.700000000000000205e-02
5.174999999999999739e-02
5.700000000000000205e-02
4.649999999999999967e-02
5.700000000000000205e-02
4.150000000000000216e-02
4.150000000000000216e-02
4.649999999999999967e-02
5.174999999999999739e-02
4.649999999999999967e-02
5.174999999999999739e-02
4.649999999999999967e-02
3.099999999999999978e-02
4.649999999999999967e-02
6.725000000000000422e-02
5.174999999999999739e-02
6.725000000000000422e-02
5.700000000000000205e-02
5.174999999999999739e-02
4.649999999999999967e-02
6.224999999999999978e-02
4.150000000000000216e-02
4.150000000000000216e-02
4.649999999999999967e-02
4.150000000000000216e-02
4.150000000000000216e-02
4.649999999999999967e-02
5.174999999999999739e-02
5.174999999999999739e-02
8.799999999999999489e-02
4.150000000000000216e-02
6.224999999999999978e-02
4.150000000000000216e-02
5.174999999999999739e-02
5.174999999999999739e-02
4.649999999999999967e-02
5.174999999999999739e-02
4.150000000000000216e-02
5.174999999999999739e-02
5.174999999999999739e-02
4.150000000000000216e-02
5.700000000000000205e-02
4.150000000000000216e-02
4.150000000000000216e-02
6.224999999999999978e-02
7.249999999999999500e-02
4.649999999999999967e-02
5.174999999999999739e-02
5.174999999999999739e-02
3.624999999999999750e-02
5.700000000000000205e-02
3.624999999999999750e-02
4.150000000000000216e-02
4.649999999999999967e-02
4.649999999999999967e-02
4.150000000000000216e-02
5.700000000000000205e-02
4.649999999999999967e-02
4.150000000000000216e-02
5.700000000000000205e-02
5.700000000000000205e-02
6.725000000000000422e-02
5.174999999999999739e-02
4.649999999999999967e-02
4.150000000000000216e-02
4.150000000000000216e-02
4.649999999999999967e-02
3.624999999999999750e-02
4.150000000000000216e-02
4.649999999999999967e-02
5.174999999999999739e-02
4.649999999999999967e-02
4.150000000000000216e-02
4.649999999999999967e-02
3.624999999999999750e-02
9.850000000000000422e-02
5.700000000000000205e-02
3.624999999999999750e-02
5.700000000000000205e-02
4.649999999999999967e-02
5.700000000000000205e-02
4.649999999999999967e-02
4.649999999999999967e-02
4.150000000000000216e-02
3.624999999999999750e-02
3.624999999999999750e-02
3.099999999999999978e-02
4.150000000000000216e-02
9.324999999999999956e-02
1.087499999999999994e-01
5.700000000000000205e-02
6.725000000000000422e-02
9.324999999999999956e-02
4.649999999999999967e-02
5.174999999999999739e-02
6.224999999999999978e-02
5.700000000000000205e-02
4.150000000000000216e-02
5.174999999999999739e-02
4.150000000000000216e-02
5.700000000000000205e-02
8.799999999999999489e-02
5.174999999999999739e-02
4.649999999999999967e-02
6.224999999999999978e-02
4.649999999999999967e-02
4.649999999999999967e-02
6.224999999999999978e-02
4.150000000000000216e-02
4.649999999999999967e-02
5.174999999999999739e-02
6.224999999999999978e-02
4.649999999999999967e-02
6.224999999999999978e-02
4.649999999999999967e-02
4.649999999999999967e-02
6.224999999999999978e-02
5.174999999999999739e-02
4.649999999999999967e-02
7.249999999999999500e-02
5.174999999999999739e-02
4.150000000000000216e-02
5.174999999999999739e-02
4.649999999999999967e-02
6.224999999999999978e-02
7.774999999999999967e-02
4.150000000000000216e-02
3.099999999999999978e-02
5.174999999999999739e-02
5.174999999999999739e-02
4.649999999999999967e-02
5.174999999999999739e-02
4.649999999999999967e-02
5.700000000000000205e-02
4.649999999999999967e-02
4.150000000000000216e-02
4.649999999999999967e-02
5.174999999999999739e-02
1.192499999999999949e-01
4.649999999999999967e-02
4.150000000000000216e-02
5.700000000000000205e-02
5.174999999999999739e-02
4.649999999999999967e-02
4.150000000000000216e-02
4.649999999999999967e-02
3.099999999999999978e-02
4.649999999999999967e-02
5.174999999999999739e-02
4.150000000000000216e-02
5.174999999999999739e-02
8.275000000000000411e-02
4.150000000000000216e-02
5.174999999999999739e-02
7.249999999999999500e-02
6.224999999999999978e-02
4.649999999999999967e-02
4.150000000000000216e-02
3.624999999999999750e-02
3.624999999999999750e-02
5.174999999999999739e-02
5.700000000000000205e-02
4.649999999999999967e-02
6.725000000000000422e-02
5.174999999999999739e-02
5.700000000000000205e-02
8.799999999999999489e-02
6.224999999999999978e-02
4.150000000000000216e-02
5.700000000000000205e-02
5.174999999999999739e-02
4.150000000000000216e-02
5.174999999999999739e-02
6.725000000000000422e-02
4.649999999999999967e-02
5.174999999999999739e-02
5.174999999999999739e-02
3.624999999999999750e-02
4.150000000000000216e-02
5.700000000000000205e-02
4.150000000000000216e-02
3.624999999999999750e-02
4.649999999999999967e-02
7.249999999999999500e-02
4.150000000000000216e-02
3.624999999999999750e-02
4.150000000000000216e-02
4.649999999999999967e-02
6.224999999999999978e-02
5.700000000000000205e-02
3.624999999999999750e-02
4.649999999999999967e-02
5.700000000000000205e-02
5.174999999999999739e-02
6.224999999999999978e-02
5.174999999999999739e-02
4.150000000000000216e-02
3.624999999999999750e-02
5.174999999999999739e-02
5.700000000000000205e-02
7.774999999999999967e-02
7.249999999999999500e-02
5.174999999999999739e-02
5.174999999999999739e-02
4.649999999999999967e-02
4.150000000000000216e-02
4.649999999999999967e-02
4.150000000000000216e-02
4.649999999999999967e-02
4.649999999999999967e-02
4.649999999999999967e-02
3.624999999999999750e-02
4.150000000000000216e-02
3.624999999999999750e-02
5.174999999999999739e-02
6.725000000000000422e-02
4.649999999999999967e-02
6.224999999999999978e-02
4.649999999999999967e-02
4.150000000000000216e-02
4.150000000000000216e-02
4.150000000000000216e-02
3.624999999999999750e-02
4.649999999999999967e-02
5.700000000000000205e-02
5.174999999999999739e-02
5.700000000000000205e-02
4.150000000000000216e-02
4.150000000000000216e-02
3.624999999999999750e-02
7.774999999999999967e-02
5.174999999999999739e-02
4.649999999999999967e-02
4.150000000000000216e-02
4.150000000000000216e-02
4.150000000000000216e-02
3.624999999999999750e-02
4.649999999999999967e-02
5.174999999999999739e-02
3.624999999999999750e-02
4.649999999999999967e-02
5.174999999999999739e-02
5.700000000000000205e-02
4.150000000000000216e-02
5.174999999999999739e-02
7.774999999999999967e-02
7.249999999999999500e-02
5.700000000000000205e-02
5.700000000000000205e-02
5.700000000000000205e-02
6.224999999999999978e-02
5.174999999999999739e-02
7.774999999999999967e-02
7.774999999999999967e-02
3.624999999999999750e-02
3.099999999999999978e-02
4.649999999999999967e-02
4.150000000000000216e-02
4.649999999999999967e-02
5.174999999999999739e-02
6.224999999999999978e-02
5.174999999999999739e-02
5.174999999999999739e-02
4.649999999999999967e-02
3.624999999999999750e-02
4.649999999999999967e-02
4.649999999999999967e-02
5.700000000000000205e-02
4.150000000000000216e-02
5.700000000000000205e-02
4.649999999999999967e-02
4.649999999999999967e-02
4.150000000000000216e-02
4.649999999999999967e-02
6.725000000000000422e-02
8.275000000000000411e-02
4.649999999999999967e-02
5.700000000000000205e-02
5.174999999999999739e-02
4.649999999999999967e-02
4.649999999999999967e-02
5.174999999999999739e-02
4.649999999999999967e-02
5.700000000000000205e-02
5.700000000000000205e-02
5.174999999999999739e-02
4.150000000000000216e-02
4.150000000000000216e-02
6.224999999999999978e-02
8.799999999999999489e-02
5.700000000000000205e-02
5.174999999999999739e-02
5.700000000000000205e-02
4.649999999999999967e-02
4.649999999999999967e-02
6.224999999999999978e-02
3.624999999999999750e-02
6.725000000000000422e-02
6.224999999999999978e-02
6.224999999999999978e-02
5.174999999999999739e-02
7.249999999999999500e-02
6.725000000000000422e-02
7.249999999999999500e-02
5.174999999999999739e-02
5.174999999999999739e-02
6.224999999999999978e-02
4.150000000000000216e-02
5.174999999999999739e-02
4.649999999999999967e-02
5.174999999999999739e-02
6.224999999999999978e-02
4.150000000000000216e-02
4.649999999999999967e-02
4.150000000000000216e-02
5.174999999999999739e-02
6.725000000000000422e-02
1.034999999999999948e-01
5.174999999999999739e-02
6.224999999999999978e-02
4.150000000000000216e-02
5.700000000000000205e-02
6.725000000000000422e-02
4.649999999999999967e-02
6.224999999999999978e-02
5.700000000000000205e-02
5.174999999999999739e-02
5.174999999999999739e-02
5.174999999999999739e-02
3.624999999999999750e-02
5.174999999999999739e-02
9.324999999999999956e-02
4.649999999999999967e-02
4.649999999999999967e-02
3.624999999999999750e-02
5.700000000000000205e-02
6.725000000000000422e-02
4.649999999999999967e-02
5.700000000000000205e-02
5.174999999999999739e-02
5.174999999999999739e-02
6.224999999999999978e-02
3.624999999999999750e-02
4.649999999999999967e-02
8.275000000000000411e-02
4.649999999999999967e-02
4.150000000000000216e-02
3.099999999999999978e-02
6.224999999999999978e-02
5.700000000000000205e-02
5.174999999999999739e-02
4.649999999999999967e-02
4.150000000000000216e-02
4.649999999999999967e-02
8.275000000000000411e-02
4.150000000000000216e-02
4.649999999999999967e-02
7.774999999999999967e-02
8.275000000000000411e-02
4.150000000000000216e-02
4.649999999999999967e-02
4.649999999999999967e-02
5.174999999999999739e-02
4.649999999999999967e-02
5.700000000000000205e-02
4.150000000000000216e-02
4.150000000000000216e-02
5.700000000000000205e-02
6.224999999999999978e-02
4.150000000000000216e-02
5.700000000000000205e-02
6.725000000000000422e-02
1.087499999999999994e-01
4.150000000000000216e-02
5.174999999999999739e-02
5.174999999999999739e-02
5.700000000000000205e-02
4.649999999999999967e-02
4.150000000000000216e-02
6.224999999999999978e-02
4.150000000000000216e-02
4.649999999999999967e-02
4.649999999999999967e-02
4.649999999999999967e-02
6.725000000000000422e-02
6.224999999999999978e-02
4.649999999999999967e-02
6.725000000000000422e-02
6.224999999999999978e-02
5.174999999999999739e-02
7.249999999999999500e-02
7.249999999999999500e-02
5.174999999999999739e-02
4.649999999999999967e-02
4.649999999999999967e-02
6.224999999999999978e-02
4.649999999999999967e-02
5.174999999999999739e-02
3.624999999999999750e-02
3.624999999999999750e-02
3.099999999999999978e-02
7.249999999999999500e-02
4.649999999999999967e-02
5.174999999999999739e-02
4.649999999999999967e-02
5.174999999999999739e-02
4.649999999999999967e-02
5.700000000000000205e-02
4.649999999999999967e-02
5.700000000000000205e-02
4.150000000000000216e-02
3.099999999999999978e-02
3.624999999999999750e-02
4.150000000000000216e-02
5.174999999999999739e-02
7.774999999999999967e-02
4.150000000000000216e-02
3.624999999999999750e-02
5.174999999999999739e-02
7.249999999999999500e-02
4.150000000000000216e-02
4.150000000000000216e-02
5.700000000000000205e-02
3.624999999999999750e-02
4.649999999999999967e-02
6.224999999999999978e-02
5.174999999999999739e-02
4.649999999999999967e-02
5.174999999999999739e-02
7.249999999999999500e-02
3.624999999999999750e-02
4.150000000000000216e-02
5.174999999999999739e-02
5.700000000000000205e-02
6.224999999999999978e-02
5.700000000000000205e-02
6.224999999999999978e-02
3.624999999999999750e-02
3.099999999999999978e-02
4.150000000000000216e-02
4.649999999999999967e-02
4.150000000000000216e-02
5.174999999999999739e-02
6.224999999999999978e-02
4.649999999999999967e-02
4.150000000000000216e-02
5.174999999999999739e-02
4.150000000000000216e-02
4.649999999999999967e-02
6.725000000000000422e-02
5.174999999999999739e-02
5.700000000000000205e-02
4.649999999999999967e-02
6.224999999999999978e-02
4.150000000000000216e-02
4.150000000000000216e-02
4.150000000000000216e-02
7.774999999999999967e-02
3.624999999999999750e-02
5.700000000000000205e-02
5.174999999999999739e-02
5.174999999999999739e-02
5.700000000000000205e-02
3.099999999999999978e-02
5.174999999999999739e-02
3.099999999999999978e-02
4.649999999999999967e-02
4.649999999999999967e-02
6.224999999999999978e-02
4.649999999999999967e-02
9.850000000000000422e-02
4.649999999999999967e-02
4.649999999999999967e-02
3.624999999999999750e-02
3.624999999999999750e-02
5.174999999999999739e-02
4.649999999999999967e-02
5.174999999999999739e-02
4.150000000000000216e-02
5.174999999999999739e-02
4.150000000000000216e-02
4.649999999999999967e-02
5.700000000000000205e-02
9.850000000000000422e-02
5.700000000000000205e-02
4.649999999999999967e-02
5.174999999999999739e-02
3.624999999999999750e-02
4.150000000000000216e-02
5.174999999999999739e-02
4.649999999999999967e-02
4.150000000000000216e-02
5.174999999999999739e-02
4.150000000000000216e-02
3.624999999999999750e-02
3.624999999999999750e-02
5.174999999999999739e-02
6.725000000000000422e-02
7.774999999999999967e-02
4.150000000000000216e-02
4.150000000000000216e-02
4.649999999999999967e-02
4.150000000000000216e-02
3.099999999999999978e-02
6.224999999999999978e-02
2.599999999999999881e-02
3.624999999999999750e-02
6.725000000000000422e-02
6.224999999999999978e-02
3.624999999999999750e-02
5.700000000000000205e-02
4.150000000000000216e-02
3.624999999999999750e-02
6.224999999999999978e-02
5.174999999999999739e-02
3.624999999999999750e-02
4.649999999999999967e-02
4.649999999999999967e-02
4.150000000000000216e-02
4.150000000000000216e-02
4.649999999999999967e-02
4.649999999999999967e-02
5.174999999999999739e-02
4.649999999999999967e-02
4.649999999999999967e-02
3.624999999999999750e-02
4.649999999999999967e-02
6.725000000000000422e-02
6.224999999999999978e-02
5.700000000000000205e-02
7.249999999999999500e-02
7.249999999999999500e-02
4.649999999999999967e-02
4.649999999999999967e-02
4.649999999999999967e-02
4.649999999999999967e-02
3.624999999999999750e-02
5.174999999999999739e-02
4.150000000000000216e-02
4.150000000000000216e-02
4.150000000000000216e-02
3.624999999999999750e-02
5.700000000000000205e-02
7.249999999999999500e-02
4.150000000000000216e-02
5.700000000000000205e-02
5.174999999999999739e-02
4.649999999999999967e-02
5.700000000000000205e-02
6.224999999999999978e-02
5.700000000000000205e-02
4.649999999999999967e-02
6.224999999999999978e-02
5.700000000000000205e-02
4.150000000000000216e-02
4.649999999999999967e-02
6.224999999999999978e-02
5.700000000000000205e-02
4.150000000000000216e-02
4.649999999999999967e-02
4.649999999999999967e-02
5.174999999999999739e-02
4.649999999999999967e-02
4.649999999999999967e-02
5.700000000000000205e-02
4.150000000000000216e-02
5.174999999999999739e-02
5.700000000000000205e-02
4.649999999999999967e-02
7.249999999999999500e-02
5.174999999999999739e-02
4.649999999999999967e-02
5.174999999999999739e-02
3.099999999999999978e-02
4.649999999999999967e-02
5.174999999999999739e-02
4.649999999999999967e-02
4.649999999999999967e-02
5.174999999999999739e-02
4.649999999999999967e-02
5.700000000000000205e-02
5.174999999999999739e-02
5.174999999999999739e-02
1.087499999999999994e-01
5.174999999999999739e-02
4.649999999999999967e-02
4.649999999999999967e-02
5.174999999999999739e-02
5.174999999999999739e-02
4.649999999999999967e-02
6.224999999999999978e-02
5.174999999999999739e-02
4.649999999999999967e-02
4.150000000000000216e-02
4.649999999999999967e-02
5.700000000000000205e-02
4.150000000000000216e-02
7.774999999999999967e-02
8.275000000000000411e-02
4.150000000000000216e-02
4.649999999999999967e-02
5.174999999999999739e-02
4.150000000000000216e-02
5.174999999999999739e-02
5.174999999999999739e-02
4.649999999999999967e-02
3.624999999999999750e-02
5.700000000000000205e-02
4.150000000000000216e-02
4.649999999999999967e-02
4.649999999999999967e-02
6.224999999999999978e-02
5.174999999999999739e-02
4.649999999999999967e-02
6.224999999999999978e-02
5.700000000000000205e-02
4.150000000000000216e-02
3.624999999999999750e-02
5.174999999999999739e-02
4.150000000000000216e-02
3.624999999999999750e-02
5.700000000000000205e-02
4.649999999999999967e-02
4.649999999999999967e-02
5.174999999999999739e-02
4.649999999999999967e-02
4.150000000000000216e-02
5.174999999999999739e-02
4.649999999999999967e-02
4.649999999999999967e-02
5.174999999999999739e-02
5.174999999999999739e-02
5.174999999999999739e-02
4.150000000000000216e-02
5.174999999999999739e-02
4.150000000000000216e-02
5.174999999999999739e-02
7.774999999999999967e-02
5.700000000000000205e-02
6.224999999999999978e-02
4.649999999999999967e-02
4.150000000000000216e-02
6.224999999999999978e-02
4.150000000000000216e-02
4.649999999999999967e-02
4.150000000000000216e-02
4.150000000000000216e-02
5.700000000000000205e-02
3.624999999999999750e-02
4.649999999999999967e-02
5.174999999999999739e-02
4.649999999999999967e-02
8.275000000000000411e-02
3.099999999999999978e-02
5.174999999999999739e-02
5.174999999999999739e-02
5.174999999999999739e-02
6.224999999999999978e-02
5.174999999999999739e-02
3.624999999999999750e-02
4.649999999999999967e-02
6.725000000000000422e-02
4.649999999999999967e-02
4.150000000000000216e-02
6.224999999999999978e-02
4.649999999999999967e-02
7.774999999999999967e-02
6.224999999999999978e-02
5.174999999999999739e-02
6.224999999999999978e-02
6.224999999999999978e-02
4.649999999999999967e-02
6.224999999999999978e-02
4.649999999999999967e-02
4.150000000000000216e-02
4.150000000000000216e-02
5.700000000000000205e-02
3.624999999999999750e-02
5.174999999999999739e-02
3.624999999999999750e-02
7.774999999999999967e-02
5.174999999999999739e-02
3.099999999999999978e-02
5.700000000000000205e-02
4.649999999999999967e-02
4.150000000000000216e-02
4.150000000000000216e-02
5.174999999999999739e-02
3.099999999999999978e-02
3.624999999999999750e-02
7.249999999999999500e-02
5.174999999999999739e-02
4.150000000000000216e-02
6.725000000000000422e-02
9.324999999999999956e-02
4.150000000000000216e-02
5.174999999999999739e-02
3.624999999999999750e-02
3.624999999999999750e-02
6.725000000000000422e-02
4.150000000000000216e-02
5.700000000000000205e-02
5.174999999999999739e-02
5.700000000000000205e-02
5.700000000000000205e-02
7.249999999999999500e-02
5.174999999999999739e-02
5.700000000000000205e-02
8.275000000000000411e-02
4.649999999999999967e-02
5.700000000000000205e-02
5.174999999999999739e-02
4.649999999999999967e-02
3.624999999999999750e-02
4.649999999999999967e-02
5.700000000000000205e-02
5.700000000000000205e-02
4.150000000000000216e-02
5.700000000000000205e-02
3.624999999999999750e-02
6.224999999999999978e-02
5.174999999999999739e-02
1.140000000000000041e-01
6.725000000000000422e-02
5.700000000000000205e-02
4.649999999999999967e-02
3.624999999999999750e-02
5.700000000000000205e-02
3.099999999999999978e-02
4.649999999999999967e-02
4.649999999999999967e-02
5.174999999999999739e-02
5.700000000000000205e-02
4.649999999999999967e-02
3.099999999999999978e-02
4.150000000000000216e-02
6.725000000000000422e-02
7.774999999999999967e-02
5.174999999999999739e-02
3.624999999999999750e-02
3.624999999999999750e-02
4.649999999999999967e-02
5.174999999999999739e-02
4.150000000000000216e-02
4.649999999999999967e-02
4.649999999999999967e-02
4.649999999999999967e-02
6.224999999999999978e-02
5.700000000000000205e-02
3.624999999999999750e-02
9.324999999999999956e-02
6.224999999999999978e-02
6.725000000000000422e-02
6.224999999999999978e-02
5.700000000000000205e-02
5.174999999999999739e-02
4.649999999999999967e-02
4.649999999999999967e-02
4.649999999999999967e-02
6.725000000000000422e-02
4.150000000000000216e-02
4.649999999999999967e-02
3.624999999999999750e-02
4.649999999999999967e-02
9.324999999999999956e-02
5.700000000000000205e-02
5.700000000000000205e-02
4.649999999999999967e-02
6.725000000000000422e-02
3.099999999999999978e-02
6.224999999999999978e-02
6.224999999999999978e-02
3.624999999999999750e-02
4.649999999999999967e-02
5.174999999999999739e-02
5.174999999999999739e-02
4.150000000000000216e-02
5.174999999999999739e-02
8.275000000000000411e-02
7.249999999999999500e-02
5.700000000000000205e-02
4.150000000000000216e-02
5.700000000000000205e-02
4.649999999999999967e-02
4.150000000000000216e-02
4.649999999999999967e-02
3.624999999999999750e-02
4.150000000000000216e-02
4.150000000000000216e-02
5.700000000000000205e-02
6.224999999999999978e-02
4.150000000000000216e-02
6.224999999999999978e-02
5.700000000000000205e-02
6.725000000000000422e-02
6.224999999999999978e-02
5.700000000000000205e-02
4.150000000000000216e-02
7.249999999999999500e-02
4.649999999999999967e-02
4.649999999999999967e-02
4.150000000000000216e-02
3.624999999999999750e-02
5.174999999999999739e-02
3.099999999999999978e-02
4.649999999999999967e-02
7.249999999999999500e-02
5.700000000000000205e-02
8.799999999999999489e-02
5.700000000000000205e-02
4.150000000000000216e-02
4.649999999999999967e-02
4.649999999999999967e-02
5.174999999999999739e-02
5.174999999999999739e-02
3.624999999999999750e-02
4.649999999999999967e-02
5.700000000000000205e-02
4.150000000000000216e-02
3.099999999999999978e-02
5.174999999999999739e-02
5.174999999999999739e-02
9.850000000000000422e-02
6.224999999999999978e-02
6.224999999999999978e-02
4.150000000000000216e-02
6.224999999999999978e-02
5.700000000000000205e-02
4.150000000000000216e-02
4.150000000000000216e-02
7.774999999999999967e-02
5.174999999999999739e-02
4.649999999999999967e-02
6.224999999999999978e-02
7.249999999999999500e-02
5.700000000000000205e-02
5.700000000000000205e-02
7.249999999999999500e-02
4.649999999999999967e-02
4.649999999999999967e-02
4.150000000000000216e-02
6.224999999999999978e-02
5.174999999999999739e-02
6.224999999999999978e-02
4.150000000000000216e-02
3.099999999999999978e-02
4.150000000000000216e-02
5.174999999999999739e-02
6.224999999999999978e-02
4.649999999999999967e-02
6.224999999999999978e-02
5.700000000000000205e-02
7.774999999999999967e-02
3.624999999999999750e-02
4.649999999999999967e-02
4.649999999999999967e-02
3.624999999999999750e-02
4.649999999999999967e-02
3.624999999999999750e-02
3.624999999999999750e-02
4.150000000000000216e-02
4.649999999999999967e-02
4.150000000000000216e-02
5.174999999999999739e-02
4.150000000000000216e-02
5.174999999999999739e-02
7.774999999999999967e-02
6.224999999999999978e-02
6.725000000000000422e-02
3.099999999999999978e-02
5.174999999999999739e-02
6.224999999999999978e-02
4.150000000000000216e-02
3.624999999999999750e-02
5.174999999999999739e-02
4.150000000000000216e-02
4.649999999999999967e-02
5.174999999999999739e-02
5.700000000000000205e-02
4.649999999999999967e-02
9.324999999999999956e-02
6.725000000000000422e-02
4.150000000000000216e-02
7.774999999999999967e-02
5.700000000000000205e-02
4.649999999999999967e-02
5.700000000000000205e-02
5.700000000000000205e-02
5.700000000000000205e-02
5.700000000000000205e-02
6.725000000000000422e-02
5.700000000000000205e-02
4.649999999999999967e-02
4.150000000000000216e-02
8.275000000000000411e-02
4.150000000000000216e-02
5.174999999999999739e-02
5.174999999999999739e-02
6.224999999999999978e-02
6.224999999999999978e-02
5.174999999999999739e-02
4.649999999999999967e-02
5.174999999999999739e-02
3.099999999999999978e-02
5.174999999999999739e-02
6.725000000000000422e-02
5.700000000000000205e-02
4.150000000000000216e-02
5.174999999999999739e-02
7.249999999999999500e-02
5.174999999999999739e-02
4.150000000000000216e-02
3.624999999999999750e-02
5.700000000000000205e-02
3.624999999999999750e-02
4.649999999999999967e-02
4.649999999999999967e-02
4.150000000000000216e-02
4.150000000000000216e-02
5.174999999999999739e-02
5.174999999999999739e-02
5.174999999999999739e-02
5.174999999999999739e-02
4.649999999999999967e-02
9.324999999999999956e-02
6.725000000000000422e-02
4.150000000000000216e-02
4.649999999999999967e-02
3.624999999999999750e-02
4.649999999999999967e-02
6.224999999999999978e-02
4.649999999999999967e-02
6.224999999999999978e-02
5.700000000000000205e-02
6.224999999999999978e-02
7.774999999999999967e-02
1.502499999999999947e-01
1.605000000000000038e-01
2.122499999999999942e-01
2.280000000000000082e-01
1.759999999999999898e-01
3.107500000000000262e-01
2.330000000000000127e-01
4.764999999999999791e-01
7.924999999999999822e-01
6.992500000000000382e-01
2.692499999999999893e-01
1.397500000000000131e-01
1.759999999999999898e-01
1.034999999999999948e-01
7.249999999999999500e-02
1.554999999999999993e-01
1.140000000000000041e-01
1.242499999999999993e-01
9.324999999999999956e-02
9.324999999999999956e-02
9.850000000000000422e-02
9.850000000000000422e-02
7.774999999999999967e-02
7.249999999999999500e-02
5.700000000000000205e-02
7.774999999999999967e-02
8.799999999999999489e-02
1.140000000000000041e-01
2.434999999999999942e-01
1.242499999999999993e-01
6.725000000000000422e-02
2.899999999999999800e-01
2.382499999999999896e-01
3.729999999999999982e-01
2.020000000000000129e-01
3.937499999999999889e-01
2.590000000000000080e-01
1.864999999999999991e-01
2.174999999999999989e-01
8.799999999999999489e-02
1.034999999999999948e-01
6.725000000000000422e-02
1.295000000000000040e-01
6.725000000000000422e-02
1.759999999999999898e-01
1.397500000000000131e-01
6.224999999999999978e-02
9.324999999999999956e-02
1.034999999999999948e-01
6.725000000000000422e-02
8.275000000000000411e-02
4.649999999999999967e-02
1.034999999999999948e-01
1.192499999999999949e-01
8.275000000000000411e-02
7.774999999999999967e-02
9.324999999999999956e-02
6.224999999999999978e-02
5.174999999999999739e-02
3.099999999999999978e-02
6.725000000000000422e-02
6.224999999999999978e-02
5.700000000000000205e-02
5.700000000000000205e-02
4.150000000000000216e-02
7.249999999999999500e-02
5.174999999999999739e-02
7.774999999999999967e-02
9.324999999999999956e-02
5.700000000000000205e-02
4.150000000000000216e-02
4.649999999999999967e-02
5.700000000000000205e-02
5.174999999999999739e-02
5.174999999999999739e-02
7.774999999999999967e-02
6.224999999999999978e-02
5.700000000000000205e-02
9.324999999999999956e-02
6.224999999999999978e-02
1.192499999999999949e-01
8.275000000000000411e-02
5.700000000000000205e-02
6.725000000000000422e-02
5.700000000000000205e-02
8.275000000000000411e-02
8.275000000000000411e-02
6.725000000000000422e-02
6.725000000000000422e-02
2.227500000000000036e-01
2.899999999999999800e-01
8.275000000000000411e-02
1.710000000000000131e-01
9.850000000000000422e-02
1.034999999999999948e-01
9.850000000000000422e-02
1.397500000000000131e-01
1.034999999999999948e-01
8.799999999999999489e-02
1.140000000000000041e-01
2.590000000000000080e-01
1.144749999999999934e+00
6.837499999999999689e-01
7.717500000000000471e-01
7.095000000000000195e-01
2.692499999999999893e-01
5.490000000000000435e-01
5.232499999999999929e-01
6.162499999999999645e-01
1.295000000000000040e-01
7.717500000000000471e-01
1.657500000000000084e-01
1.087499999999999994e-01
1.502499999999999947e-01
1.034999999999999948e-01
9.850000000000000422e-02
1.554999999999999993e-01
1.449999999999999900e-01
9.324999999999999956e-02
1.449999999999999900e-01
1.242499999999999993e-01
1.295000000000000040e-01
1.449999999999999900e-01
8.799999999999999489e-02
1.295000000000000040e-01
8.275000000000000411e-02
1.140000000000000041e-01
7.774999999999999967e-02
9.324999999999999956e-02
8.275000000000000411e-02
7.774999999999999967e-02
9.850000000000000422e-02
1.192499999999999949e-01
6.224999999999999978e-02
1.295000000000000040e-01
6.725000000000000422e-02
6.725000000000000422e-02
9.850000000000000422e-02
5.700000000000000205e-02
7.774999999999999967e-02
6.224999999999999978e-02
1.034999999999999948e-01
1.034999999999999948e-01
8.275000000000000411e-02
8.799999999999999489e-02
1.140000000000000041e-01
1.242499999999999993e-01
1.034999999999999948e-01
1.140000000000000041e-01
1.034999999999999948e-01
1.449999999999999900e-01
1.554999999999999993e-01
1.192499999999999949e-01
9.324999999999999956e-02
1.140000000000000041e-01
1.657500000000000084e-01
1.140000000000000041e-01
1.087499999999999994e-01
8.275000000000000411e-02
1.449999999999999900e-01
1.140000000000000041e-01
1.140000000000000041e-01
1.449999999999999900e-01
1.034999999999999948e-01
1.034999999999999948e-01
8.275000000000000411e-02
8.275000000000000411e-02
8.275000000000000411e-02
8.275000000000000411e-02
8.799999999999999489e-02
8.799999999999999489e-02
7.774999999999999967e-02
6.725000000000000422e-02
8.799999999999999489e-02
1.242499999999999993e-01
1.140000000000000041e-01
6.224999999999999978e-02
1.192499999999999949e-01
7.249999999999999500e-02
6.224999999999999978e-02
8.799999999999999489e-02
7.774999999999999967e-02
6.725000000000000422e-02
8.799999999999999489e-02
8.275000000000000411e-02
1.295000000000000040e-01
6.224999999999999978e-02
7.249999999999999500e-02
6.725000000000000422e-02
6.725000000000000422e-02
7.774999999999999967e-02
6.224999999999999978e-02
8.799999999999999489e-02
8.799999999999999489e-02
1.034999999999999948e-01
1.140000000000000041e-01
8.275000000000000411e-02
6.725000000000000422e-02
9.850000000000000422e-02
9.324999999999999956e-02
1.140000000000000041e-01
7.774999999999999967e-02
7.774999999999999967e-02
9.324999999999999956e-02
1.242499999999999993e-01
8.275000000000000411e-02
8.275000000000000411e-02
8.275000000000000411e-02
9.850000000000000422e-02
9.324999999999999956e-02
9.324999999999999956e-02
8.275000000000000411e-02
1.034999999999999948e-01
8.275000000000000411e-02
1.192499999999999949e-01
8.275000000000000411e-02
1.087499999999999994e-01
7.774999999999999967e-02
1.087499999999999994e-01
1.397500000000000131e-01
1.917500000000000038e-01
1.347500000000000087e-01
6.224999999999999978e-02
6.224999999999999978e-02
7.774999999999999967e-02
6.725000000000000422e-02
5.700000000000000205e-02
6.224999999999999978e-02
6.725000000000000422e-02
7.774999999999999967e-02
5.700000000000000205e-02
5.700000000000000205e-02
3.624999999999999750e-02
1.295000000000000040e-01
9.850000000000000422e-02
9.850000000000000422e-02
5.700000000000000205e-02
8.275000000000000411e-02
9.324999999999999956e-02
7.774999999999999967e-02
5.174999999999999739e-02
7.774999999999999967e-02
9.850000000000000422e-02
6.725000000000000422e-02
5.174999999999999739e-02
5.174999999999999739e-02
4.649999999999999967e-02
5.700000000000000205e-02
6.725000000000000422e-02
6.725000000000000422e-02
8.275000000000000411e-02
5.174999999999999739e-02
7.249999999999999500e-02
9.850000000000000422e-02
7.249999999999999500e-02
7.249999999999999500e-02
6.224999999999999978e-02
4.649999999999999967e-02
1.034999999999999948e-01
5.174999999999999739e-02
4.150000000000000216e-02
4.150000000000000216e-02
7.249999999999999500e-02
7.249999999999999500e-02
8.799999999999999489e-02
6.224999999999999978e-02
4.150000000000000216e-02
4.649999999999999967e-02
5.174999999999999739e-02
4.649999999999999967e-02
4.150000000000000216e-02
5.700000000000000205e-02
7.249999999999999500e-02
9.324999999999999956e-02
6.725000000000000422e-02
6.224999999999999978e-02
5.174999999999999739e-02
3.624999999999999750e-02
5.700000000000000205e-02
8.799999999999999489e-02
4.649999999999999967e-02
5.174999999999999739e-02
7.249999999999999500e-02
1.034999999999999948e-01
4.150000000000000216e-02
4.649999999999999967e-02
5.700000000000000205e-02
5.174999999999999739e-02
5.700000000000000205e-02
5.700000000000000205e-02
8.799999999999999489e-02
3.099999999999999978e-02
6.224999999999999978e-02
7.774999999999999967e-02
4.649999999999999967e-02
4.150000000000000216e-02
7.249999999999999500e-02
4.649999999999999967e-02
5.700000000000000205e-02
4.649999999999999967e-02
4.649999999999999967e-02
4.649999999999999967e-02
5.174999999999999739e-02
6.224999999999999978e-02
6.725000000000000422e-02
6.224999999999999978e-02
5.174999999999999739e-02
4.150000000000000216e-02
6.224999999999999978e-02
4.150000000000000216e-02
6.224999999999999978e-02
4.649999999999999967e-02
6.725000000000000422e-02
5.700000000000000205e-02
4.649999999999999967e-02
9.850000000000000422e-02
6.725000000000000422e-02
4.150000000000000216e-02
4.150000000000000216e-02
5.700000000000000205e-02
6.224999999999999978e-02
5.174999999999999739e-02
5.174999999999999739e-02
6.725000000000000422e-02
7.774999999999999967e-02
4.649999999999999967e-02
4.649999999999999967e-02
9.850000000000000422e-02
4.649999999999999967e-02
4.649999999999999967e-02
6.725000000000000422e-02
5.174999999999999739e-02
6.224999999999999978e-02
6.725000000000000422e-02
7.249999999999999500e-02
5.174999999999999739e-02
3.099999999999999978e-02
6.224999999999999978e-02
5.700000000000000205e-02
9.850000000000000422e-02
6.725000000000000422e-02
6.224999999999999978e-02
5.174999999999999739e-02
5.174999999999999739e-02
3.624999999999999750e-02
4.649999999999999967e-02
3.624999999999999750e-02
4.649999999999999967e-02
6.224999999999999978e-02
5.174999999999999739e-02
5.174999999999999739e-02
5.174999999999999739e-02
8.275000000000000411e-02
5.700000000000000205e-02
5.700000000000000205e-02
6.224999999999999978e-02
6.725000000000000422e-02
4.150000000000000216e-02
4.649999999999999967e-02
4.150000000000000216e-02
3.624999999999999750e-02
5.174999999999999739e-02
4.649999999999999967e-02
5.174999999999999739e-02
9.324999999999999956e-02
9.324999999999999956e-02
6.725000000000000422e-02
5.174999999999999739e-02
4.150000000000000216e-02
5.174999999999999739e-02
3.624999999999999750e-02
4.649999999999999967e-02
5.174999999999999739e-02
7.774999999999999967e-02
5.174999999999999739e-02
6.224999999999999978e-02
4.150000000000000216e-02
9.850000000000000422e-02
4.150000000000000216e-02
4.649999999999999967e-02
4.150000000000000216e-02
4.649999999999999967e-02
6.224999999999999978e-02
5.174999999999999739e-02
5.700000000000000205e-02
6.224999999999999978e-02
4.649999999999999967e-02
4.649999999999999967e-02
8.799999999999999489e-02
5.174999999999999739e-02
7.774999999999999967e-02
4.150000000000000216e-02
5.700000000000000205e-02
6.224999999999999978e-02
6.725000000000000422e-02
4.649999999999999967e-02
5.700000000000000205e-02
4.649999999999999967e-02
6.224999999999999978e-02
5.174999999999999739e-02
4.649999999999999967e-02
5.700000000000000205e-02
6.224999999999999978e-02
6.725000000000000422e-02
4.150000000000000216e-02
5.174999999999999739e-02
5.700000000000000205e-02
5.700000000000000205e-02
5.174999999999999739e-02
5.700000000000000205e-02
3.624999999999999750e-02
3.624999999999999750e-02
5.700000000000000205e-02
6.725000000000000422e-02
5.174999999999999739e-02
8.799999999999999489e-02
5.700000000000000205e-02
5.174999999999999739e-02
6.224999999999999978e-02
3.624999999999999750e-02
5.700000000000000205e-02
5.174999999999999739e-02
6.224999999999999978e-02
3.624999999999999750e-02
5.700000000000000205e-02
5.174999999999999739e-02
5.700000000000000205e-02
5.174999999999999739e-02
8.799999999999999489e-02
7.249999999999999500e-02
5.700000000000000205e-02
5.174999999999999739e-02
4.649999999999999967e-02
4.649999999999999967e-02
5.700000000000000205e-02
6.224999999999999978e-02
6.725000000000000422e-02
5.174999999999999739e-02
5.700000000000000205e-02
4.649999999999999967e-02
6.725000000000000422e-02
7.774999999999999967e-02
5.174999999999999739e-02
4.150000000000000216e-02
6.725000000000000422e-02
4.150000000000000216e-02
4.150000000000000216e-02
4.649999999999999967e-02
4.649999999999999967e-02
5.174999999999999739e-02
4.649999999999999967e-02
4.649999999999999967e-02
6.725000000000000422e-02
4.649999999999999967e-02
8.275000000000000411e-02
4.649999999999999967e-02
4.649999999999999967e-02
4.150000000000000216e-02
5.174999999999999739e-02
6.224999999999999978e-02
5.700000000000000205e-02
4.649999999999999967e-02
6.725000000000000422e-02
5.174999999999999739e-02
6.725000000000000422e-02
4.150000000000000216e-02
4.649999999999999967e-02
6.725000000000000422e-02
7.774999999999999967e-02
6.725000000000000422e-02
6.224999999999999978e-02
4.150000000000000216e-02
5.700000000000000205e-02
4.649999999999999967e-02
6.224999999999999978e-02
5.174999999999999739e-02
4.649999999999999967e-02
6.725000000000000422e-02
6.224999999999999978e-02
4.649999999999999967e-02
5.174999999999999739e-02
8.275000000000000411e-02
8.799999999999999489e-02
5.700000000000000205e-02
4.150000000000000216e-02
5.700000000000000205e-02
4.649999999999999967e-02
5.700000000000000205e-02
5.700000000000000205e-02
6.224999999999999978e-02
4.649999999999999967e-02
4.649999999999999967e-02
5.700000000000000205e-02
4.649999999999999967e-02
5.700000000000000205e-02
6.725000000000000422e-02
6.224999999999999978e-02
4.649999999999999967e-02
5.174999999999999739e-02
1.295000000000000040e-01
1.295000000000000040e-01
2.642499999999999849e-01
2.745000000000000218e-01
7.249999999999999500e-02
1.710000000000000131e-01
1.710000000000000131e-01
7.249999999999999500e-02
9.850000000000000422e-02
1.295000000000000040e-01
1.657500000000000084e-01
3.574999999999999845e-01
1.192499999999999949e-01
2.642499999999999849e-01
1.759999999999999898e-01
1.967500000000000082e-01
1.759999999999999898e-01
1.397500000000000131e-01
2.590000000000000080e-01
2.484999999999999987e-01
3.315000000000000169e-01
1.449999999999999900e-01
1.347500000000000087e-01
2.020000000000000129e-01
1.087499999999999994e-01
1.140000000000000041e-01
9.850000000000000422e-02
1.449999999999999900e-01
2.590000000000000080e-01
2.174999999999999989e-01
2.122499999999999942e-01
1.864999999999999991e-01
1.967500000000000082e-01
1.449999999999999900e-01
2.537499999999999756e-01
2.020000000000000129e-01
1.295000000000000040e-01
1.710000000000000131e-01
1.917500000000000038e-01
1.087499999999999994e-01
2.280000000000000082e-01
9.324999999999999956e-02
1.554999999999999993e-01
1.812499999999999944e-01
1.140000000000000041e-01
1.502499999999999947e-01
1.917500000000000038e-01
1.347500000000000087e-01
1.967500000000000082e-01
8.275000000000000411e-02
2.072499999999999898e-01
2.072499999999999898e-01
1.192499999999999949e-01
1.967500000000000082e-01
1.657500000000000084e-01
1.554999999999999993e-01
2.122499999999999942e-01
1.502499999999999947e-01
1.554999999999999993e-01
1.347500000000000087e-01
1.812499999999999944e-01
1.347500000000000087e-01
2.797499999999999987e-01
1.657500000000000084e-01
1.605000000000000038e-01
1.554999999999999993e-01
2.174999999999999989e-01
1.087499999999999994e-01
2.020000000000000129e-01
1.242499999999999993e-01
1.657500000000000084e-01
1.864999999999999991e-01
1.295000000000000040e-01
1.242499999999999993e-01
9.850000000000000422e-02
9.850000000000000422e-02
1.242499999999999993e-01
1.347500000000000087e-01
1.397500000000000131e-01
1.605000000000000038e-01
7.249999999999999500e-02
1.140000000000000041e-01
8.275000000000000411e-02
5.700000000000000205e-02
5.700000000000000205e-02
5.700000000000000205e-02
4.150000000000000216e-02
4.649999999999999967e-02
