2.642499999999999849e-01
1.242499999999999993e-01
5.700000000000000205e-02
2.280000000000000082e-01
5.180000000000000160e-01
7.249999999999999500e-02
9.850000000000000422e-02
9.324999999999999956e-02
7.249999999999999500e-02
5.700000000000000205e-02
4.649999999999999967e-02
5.174999999999999739e-02
1.502499999999999947e-01
1.449999999999999900e-01
7.774999999999999967e-02
8.799999999999999489e-02
6.224999999999999978e-02
1.347500000000000087e-01
7.774999999999999967e-02
1.087499999999999994e-01
4.649999999999999967e-02
7.249999999999999500e-02
8.275000000000000411e-02
5.700000000000000205e-02
6.224999999999999978e-02
7.249999999999999500e-02
5.700000000000000205e-02
7.774999999999999967e-02
1.087499999999999994e-01
6.725000000000000422e-02
6.224999999999999978e-02
4.649999999999999967e-02
6.224999999999999978e-02
5.700000000000000205e-02
5.700000000000000205e-02
6.224999999999999978e-02
6.725000000000000422e-02
5.700000000000000205e-02
6.725000000000000422e-02
6.224999999999999978e-02
6.725000000000000422e-02
6.725000000000000422e-02
4.649999999999999967e-02
5.174999999999999739e-02
5.174999999999999739e-02
6.725000000000000422e-02
7.249999999999999500e-02
2.122499999999999942e-01
2.122499999999999942e-01
1.864999999999999991e-01
8.275000000000000411e-02
5.174999999999999739e-02
7.774999999999999967e-02
7.774999999999999967e-02
7.774999999999999967e-02
8.799999999999999489e-02
6.224999999999999978e-02
1.502499999999999947e-01
8.275000000000000411e-02
9.324999999999999956e-02
6.224999999999999978e-02
8.275000000000000411e-02
1.140000000000000041e-01
8.275000000000000411e-02
7.249999999999999500e-02
8.799999999999999489e-02
4.649999999999999967e-02
5.700000000000000205e-02
5.700000000000000205e-02
4.649999999999999967e-02
1.347500000000000087e-01
1.710000000000000131e-01
9.850000000000000422e-02
7.774999999999999967e-02
5.700000000000000205e-02
5.174999999999999739e-02
6.725000000000000422e-02
9.324999999999999956e-02
6.224999999999999978e-02
2.174999999999999989e-01
7.249999999999999500e-02
5.174999999999999739e-02
2.382499999999999896e-01
1.034999999999999948e-01
7.249999999999999500e-02
5.700000000000000205e-02
9.850000000000000422e-02
7.249999999999999500e-02
6.725000000000000422e-02
1.034999999999999948e-01
5.174999999999999739e-02
6.224999999999999978e-02
5.700000000000000205e-02
6.725000000000000422e-02
7.774999999999999967e-02
7.249999999999999500e-02
6.725000000000000422e-02
7.249999999999999500e-02
1.140000000000000041e-01
9.324999999999999956e-02
1.192499999999999949e-01
9.850000000000000422e-02
6.224999999999999978e-02
9.324999999999999956e-02
5.174999999999999739e-02
4.649999999999999967e-02
7.774999999999999967e-02
6.224999999999999978e-02
1.034999999999999948e-01
5.174999999999999739e-02
5.174999999999999739e-02
7.249999999999999500e-02
1.034999999999999948e-01
7.249999999999999500e-02
7.774999999999999967e-02
6.725000000000000422e-02
9.850000000000000422e-02
8.275000000000000411e-02
8.275000000000000411e-02
4.649999999999999967e-02
8.799999999999999489e-02
5.700000000000000205e-02
8.275000000000000411e-02
6.224999999999999978e-02
7.249999999999999500e-02
7.774999999999999967e-02
6.725000000000000422e-02
8.799999999999999489e-02
2.692499999999999893e-01
9.850000000000000422e-02
8.799999999999999489e-02
6.224999999999999978e-02
4.649999999999999967e-02
6.725000000000000422e-02
5.174999999999999739e-02
5.700000000000000205e-02
5.700000000000000205e-02
7.774999999999999967e-02
6.224999999999999978e-02
6.224999999999999978e-02
9.850000000000000422e-02
5.700000000000000205e-02
5.174999999999999739e-02
7.249999999999999500e-02
8.275000000000000411e-02
4.150000000000000216e-02
6.725000000000000422e-02
5.700000000000000205e-02
3.624999999999999750e-02
5.174999999999999739e-02
7.774999999999999967e-02
5.700000000000000205e-02
7.249999999999999500e-02
8.799999999999999489e-02
1.397500000000000131e-01
6.725000000000000422e-02
5.700000000000000205e-02
6.725000000000000422e-02
6.224999999999999978e-02
7.249999999999999500e-02
7.249999999999999500e-02
1.087499999999999994e-01
9.324999999999999956e-02
8.799999999999999489e-02
7.774999999999999967e-02
5.174999999999999739e-02
1.034999999999999948e-01
7.774999999999999967e-02
5.174999999999999739e-02
8.799999999999999489e-02
7.249999999999999500e-02
7.249999999999999500e-02
8.275000000000000411e-02
7.774999999999999967e-02
5.700000000000000205e-02
8.275000000000000411e-02
3.107500000000000262e-01
8.275000000000000411e-02
9.850000000000000422e-02
1.864999999999999991e-01
1.967500000000000082e-01
1.242499999999999993e-01
7.774999999999999967e-02
8.799999999999999489e-02
8.275000000000000411e-02
6.224999999999999978e-02
7.249999999999999500e-02
1.242499999999999993e-01
1.502499999999999947e-01
8.275000000000000411e-02
9.324999999999999956e-02
1.554999999999999993e-01
7.774999999999999967e-02
4.150000000000000216e-02
6.224999999999999978e-02
5.174999999999999739e-02
7.249999999999999500e-02
5.700000000000000205e-02
5.174999999999999739e-02
4.150000000000000216e-02
6.725000000000000422e-02
6.224999999999999978e-02
7.774999999999999967e-02
8.275000000000000411e-02
6.725000000000000422e-02
7.774999999999999967e-02
4.649999999999999967e-02
5.700000000000000205e-02
6.224999999999999978e-02
6.725000000000000422e-02
5.174999999999999739e-02
5.700000000000000205e-02
5.174999999999999739e-02
5.700000000000000205e-02
8.799999999999999489e-02
6.725000000000000422e-02
7.774999999999999967e-02
4.649999999999999967e-02
1.087499999999999994e-01
6.725000000000000422e-02
6.725000000000000422e-02
9.324999999999999956e-02
8.275000000000000411e-02
7.774999999999999967e-02
6.725000000000000422e-02
8.275000000000000411e-02
5.174999999999999739e-02
8.275000000000000411e-02
7.774999999999999967e-02
7.249999999999999500e-02
5.700000000000000205e-02
6.725000000000000422e-02
4.649999999999999967e-02
8.275000000000000411e-02
1.295000000000000040e-01
8.799999999999999489e-02
6.224999999999999978e-02
6.224999999999999978e-02
6.224999999999999978e-02
6.224999999999999978e-02
5.174999999999999739e-02
5.174999999999999739e-02
3.624999999999999750e-02
7.249999999999999500e-02
7.249999999999999500e-02
7.774999999999999967e-02
7.249999999999999500e-02
6.224999999999999978e-02
5.174999999999999739e-02
5.700000000000000205e-02
5.174999999999999739e-02
6.224999999999999978e-02
6.224999999999999978e-02
5.174999999999999739e-02
5.174999999999999739e-02
7.249999999999999500e-02
9.324999999999999956e-02
8.799999999999999489e-02
4.150000000000000216e-02
6.725000000000000422e-02
6.224999999999999978e-02
7.774999999999999967e-02
7.249999999999999500e-02
8.275000000000000411e-02
7.249999999999999500e-02
7.774999999999999967e-02
7.774999999999999967e-02
9.324999999999999956e-02
7.249999999999999500e-02
7.249999999999999500e-02
1.034999999999999948e-01
6.224999999999999978e-02
7.249999999999999500e-02
6.224999999999999978e-02
6.224999999999999978e-02
8.275000000000000411e-02
7.249999999999999500e-02
7.249999999999999500e-02
8.799999999999999489e-02
5.700000000000000205e-02
7.774999999999999967e-02
8.799999999999999489e-02
7.774999999999999967e-02
1.034999999999999948e-01
7.249999999999999500e-02
6.224999999999999978e-02
7.774999999999999967e-02
1.034999999999999948e-01
7.249999999999999500e-02
7.774999999999999967e-02
1.034999999999999948e-01
8.799999999999999489e-02
7.249999999999999500e-02
8.275000000000000411e-02
8.275000000000000411e-02
8.275000000000000411e-02
7.249999999999999500e-02
1.034999999999999948e-01
5.700000000000000205e-02
5.174999999999999739e-02
1.034999999999999948e-01
1.087499999999999994e-01
6.224999999999999978e-02
4.649999999999999967e-02
5.174999999999999739e-02
5.700000000000000205e-02
5.700000000000000205e-02
5.174999999999999739e-02
8.799999999999999489e-02
6.224999999999999978e-02
7.774999999999999967e-02
1.917500000000000038e-01
3.107500000000000262e-01
5.174999999999999739e-02
5.700000000000000205e-02
6.224999999999999978e-02
8.799999999999999489e-02
2.484999999999999987e-01
4.150000000000000216e-02
6.725000000000000422e-02
4.649999999999999967e-02
5.700000000000000205e-02
5.700000000000000205e-02
9.324999999999999956e-02
4.150000000000000216e-02
5.174999999999999739e-02
2.020000000000000129e-01
1.347500000000000087e-01
3.315000000000000169e-01
5.180000000000000160e-01
5.334999999999999742e-01
6.267500000000000293e-01
4.299999999999999933e-01
4.092500000000000027e-01
5.594999999999999973e-01
1.917500000000000038e-01
1.657500000000000084e-01
3.987499999999999933e-01
1.502499999999999947e-01
1.295000000000000040e-01
2.020000000000000129e-01
1.812499999999999944e-01
2.020000000000000129e-01
1.710000000000000131e-01
2.122499999999999942e-01
1.605000000000000038e-01
8.799999999999999489e-02
2.642499999999999849e-01
2.280000000000000082e-01
1.812499999999999944e-01
2.590000000000000080e-01
2.020000000000000129e-01
1.710000000000000131e-01
2.692499999999999893e-01
2.122499999999999942e-01
2.849999999999999756e-01
2.280000000000000082e-01
2.849999999999999756e-01
1.917500000000000038e-01
1.710000000000000131e-01
2.072499999999999898e-01
3.832499999999999796e-01
2.382499999999999896e-01
3.160000000000000031e-01
2.797499999999999987e-01
2.122499999999999942e-01
3.417499999999999982e-01
2.484999999999999987e-01
1.812499999999999944e-01
2.382499999999999896e-01
1.812499999999999944e-01
1.864999999999999991e-01
3.315000000000000169e-01
3.832499999999999796e-01
1.967500000000000082e-01
1.917500000000000038e-01
2.227500000000000036e-01
1.812499999999999944e-01
1.917500000000000038e-01
1.347500000000000087e-01
2.072499999999999898e-01
3.469999999999999751e-01
1.710000000000000131e-01
1.967500000000000082e-01
1.657500000000000084e-01
1.295000000000000040e-01
1.554999999999999993e-01
3.262499999999999845e-01
1.087499999999999994e-01
2.382499999999999896e-01
2.849999999999999756e-01
9.850000000000000422e-02
1.710000000000000131e-01
1.502499999999999947e-01
1.759999999999999898e-01
8.799999999999999489e-02
1.087499999999999994e-01
2.745000000000000218e-01
1.242499999999999993e-01
7.774999999999999967e-02
7.774999999999999967e-02
7.774999999999999967e-02
1.034999999999999948e-01
1.449999999999999900e-01
6.725000000000000422e-02
1.812499999999999944e-01
8.275000000000000411e-02
8.275000000000000411e-02
6.725000000000000422e-02
1.295000000000000040e-01
9.324999999999999956e-02
1.554999999999999993e-01
8.275000000000000411e-02
1.554999999999999993e-01
6.224999999999999978e-02
8.275000000000000411e-02
1.295000000000000040e-01
1.605000000000000038e-01
2.952500000000000124e-01
9.324999999999999956e-02
8.799999999999999489e-02
9.324999999999999956e-02
1.967500000000000082e-01
1.140000000000000041e-01
5.700000000000000205e-02
8.799999999999999489e-02
2.280000000000000082e-01
2.072499999999999898e-01
1.034999999999999948e-01
1.397500000000000131e-01
9.324999999999999956e-02
1.087499999999999994e-01
4.649999999999999967e-02
1.554999999999999993e-01
1.295000000000000040e-01
2.745000000000000218e-01
2.590000000000000080e-01
1.812499999999999944e-01
1.034999999999999948e-01
2.899999999999999800e-01
1.192499999999999949e-01
2.382499999999999896e-01
2.484999999999999987e-01
1.087499999999999994e-01
1.759999999999999898e-01
1.605000000000000038e-01
1.710000000000000131e-01
2.072499999999999898e-01
1.347500000000000087e-01
1.812499999999999944e-01
9.324999999999999956e-02
2.434999999999999942e-01
7.774999999999999967e-02
1.759999999999999898e-01
2.484999999999999987e-01
2.020000000000000129e-01
1.295000000000000040e-01
2.174999999999999989e-01
2.382499999999999896e-01
1.034999999999999948e-01
1.295000000000000040e-01
1.140000000000000041e-01
1.502499999999999947e-01
1.295000000000000040e-01
1.502499999999999947e-01
1.864999999999999991e-01
1.295000000000000040e-01
3.054999999999999938e-01
1.554999999999999993e-01
1.347500000000000087e-01
1.657500000000000084e-01
8.799999999999999489e-02
2.020000000000000129e-01
2.174999999999999989e-01
1.605000000000000038e-01
1.812499999999999944e-01
2.122499999999999942e-01
8.275000000000000411e-02
1.657500000000000084e-01
1.812499999999999944e-01
1.917500000000000038e-01
8.799999999999999489e-02
1.605000000000000038e-01
1.034999999999999948e-01
1.449999999999999900e-01
1.605000000000000038e-01
1.397500000000000131e-01
1.347500000000000087e-01
1.759999999999999898e-01
2.797499999999999987e-01
1.449999999999999900e-01
1.657500000000000084e-01
1.657500000000000084e-01
1.502499999999999947e-01
2.227500000000000036e-01
1.967500000000000082e-01
1.242499999999999993e-01
7.774999999999999967e-02
1.710000000000000131e-01
2.020000000000000129e-01
5.174999999999999739e-02
1.967500000000000082e-01
2.072499999999999898e-01
2.174999999999999989e-01
5.174999999999999739e-02
8.275000000000000411e-02
2.122499999999999942e-01
4.649999999999999967e-02
3.315000000000000169e-01
1.864999999999999991e-01
8.799999999999999489e-02
1.034999999999999948e-01
1.967500000000000082e-01
7.774999999999999967e-02
6.725000000000000422e-02
6.224999999999999978e-02
7.249999999999999500e-02
1.397500000000000131e-01
1.657500000000000084e-01
1.347500000000000087e-01
1.397500000000000131e-01
7.249999999999999500e-02
6.224999999999999978e-02
4.649999999999999967e-02
6.224999999999999978e-02
1.812499999999999944e-01
1.554999999999999993e-01
2.484999999999999987e-01
9.324999999999999956e-02
2.072499999999999898e-01
5.700000000000000205e-02
1.397500000000000131e-01
1.295000000000000040e-01
9.324999999999999956e-02
2.072499999999999898e-01
1.087499999999999994e-01
1.034999999999999948e-01
1.087499999999999994e-01
1.242499999999999993e-01
1.812499999999999944e-01
9.850000000000000422e-02
5.700000000000000205e-02
6.725000000000000422e-02
5.700000000000000205e-02
1.034999999999999948e-01
9.850000000000000422e-02
6.224999999999999978e-02
1.295000000000000040e-01
1.192499999999999949e-01
2.537499999999999756e-01
1.087499999999999994e-01
6.725000000000000422e-02
2.537499999999999756e-01
1.140000000000000041e-01
6.725000000000000422e-02
1.192499999999999949e-01
8.799999999999999489e-02
8.799999999999999489e-02
7.249999999999999500e-02
7.774999999999999967e-02
5.700000000000000205e-02
8.275000000000000411e-02
7.774999999999999967e-02
1.397500000000000131e-01
1.449999999999999900e-01
1.192499999999999949e-01
5.174999999999999739e-02
8.275000000000000411e-02
5.174999999999999739e-02
8.275000000000000411e-02
8.799999999999999489e-02
5.700000000000000205e-02
8.275000000000000411e-02
6.224999999999999978e-02
1.087499999999999994e-01
8.799999999999999489e-02
1.967500000000000082e-01
1.140000000000000041e-01
9.324999999999999956e-02
2.227500000000000036e-01
9.324999999999999956e-02
1.140000000000000041e-01
2.280000000000000082e-01
1.710000000000000131e-01
2.072499999999999898e-01
3.262499999999999845e-01
4.712500000000000022e-01
2.745000000000000218e-01
2.745000000000000218e-01
1.759999999999999898e-01
1.917500000000000038e-01
3.054999999999999938e-01
2.849999999999999756e-01
2.484999999999999987e-01
2.590000000000000080e-01
3.832499999999999796e-01
3.054999999999999938e-01
1.812499999999999944e-01
2.072499999999999898e-01
2.072499999999999898e-01
1.605000000000000038e-01
2.122499999999999942e-01
1.864999999999999991e-01
2.642499999999999849e-01
1.759999999999999898e-01
1.242499999999999993e-01
1.502499999999999947e-01
1.087499999999999994e-01
1.864999999999999991e-01
2.590000000000000080e-01
1.242499999999999993e-01
2.072499999999999898e-01
1.657500000000000084e-01
1.034999999999999948e-01
1.657500000000000084e-01
1.502499999999999947e-01
1.502499999999999947e-01
7.774999999999999967e-02
2.072499999999999898e-01
6.224999999999999978e-02
1.034999999999999948e-01
1.864999999999999991e-01
8.799999999999999489e-02
1.034999999999999948e-01
1.605000000000000038e-01
6.725000000000000422e-02
1.554999999999999993e-01
1.397500000000000131e-01
1.140000000000000041e-01
6.725000000000000422e-02
1.242499999999999993e-01
9.324999999999999956e-02
7.249999999999999500e-02
1.034999999999999948e-01
8.799999999999999489e-02
2.227500000000000036e-01
1.347500000000000087e-01
2.020000000000000129e-01
2.745000000000000218e-01
1.812499999999999944e-01
1.605000000000000038e-01
1.759999999999999898e-01
1.759999999999999898e-01
2.330000000000000127e-01
2.692499999999999893e-01
6.889999999999999458e-01
2.484999999999999987e-01
4.817500000000000115e-01
3.469999999999999751e-01
5.799999999999999600e-01
3.937499999999999889e-01
1.710000000000000131e-01
4.610000000000000209e-01
1.710000000000000131e-01
1.864999999999999991e-01
1.917500000000000038e-01
1.605000000000000038e-01
1.192499999999999949e-01
1.192499999999999949e-01
1.192499999999999949e-01
2.020000000000000129e-01
2.020000000000000129e-01
1.864999999999999991e-01
7.249999999999999500e-02
1.812499999999999944e-01
1.710000000000000131e-01
1.192499999999999949e-01
2.590000000000000080e-01
2.072499999999999898e-01
2.174999999999999989e-01
1.242499999999999993e-01
1.397500000000000131e-01
1.967500000000000082e-01
1.812499999999999944e-01
1.397500000000000131e-01
1.967500000000000082e-01
1.917500000000000038e-01
2.227500000000000036e-01
2.484999999999999987e-01
2.590000000000000080e-01
2.899999999999999800e-01
3.107500000000000262e-01
2.952500000000000124e-01
3.417499999999999982e-01
2.382499999999999896e-01
3.522500000000000075e-01
2.330000000000000127e-01
3.054999999999999938e-01
2.020000000000000129e-01
2.020000000000000129e-01
1.605000000000000038e-01
3.107500000000000262e-01
3.212499999999999800e-01
4.247500000000000164e-01
4.919999999999999929e-01
3.987499999999999933e-01
2.020000000000000129e-01
3.212499999999999800e-01
3.469999999999999751e-01
8.080000000000000515e-01
9.322500000000000231e-01
3.780000000000000027e-01
3.624999999999999889e-01
5.697499999999999787e-01
4.505000000000000115e-01
7.457500000000000240e-01
6.524999999999999689e-01
6.162499999999999645e-01
8.649999999999999911e-01
7.770000000000000240e-01
1.108500000000000041e+00
9.220000000000000417e-01
3.522500000000000075e-01
6.837499999999999689e-01
7.252499999999999503e-01
6.370000000000000107e-01
8.597500000000000142e-01
6.320000000000000062e-01
7.302499999999999547e-01
5.799999999999999600e-01
4.817500000000000115e-01
4.349999999999999978e-01
6.889999999999999458e-01
5.645000000000000018e-01
4.349999999999999978e-01
4.972500000000000253e-01
3.729999999999999982e-01
4.349999999999999978e-01
5.232499999999999929e-01
9.582500000000000462e-01
7.095000000000000195e-01
4.194999999999999840e-01
6.162499999999999645e-01
2.330000000000000127e-01
6.370000000000000107e-01
7.614999999999999547e-01
9.997500000000000275e-01
7.095000000000000195e-01
5.749999999999999556e-01
4.869999999999999885e-01
3.987499999999999933e-01
6.370000000000000107e-01
4.092500000000000027e-01
4.247500000000000164e-01
4.972500000000000253e-01
4.194999999999999840e-01
3.054999999999999938e-01
3.469999999999999751e-01
2.642499999999999849e-01
2.072499999999999898e-01
2.797499999999999987e-01
3.107500000000000262e-01
1.917500000000000038e-01
1.759999999999999898e-01
1.657500000000000084e-01
2.072499999999999898e-01
3.004999999999999893e-01
2.280000000000000082e-01
9.850000000000000422e-02
2.330000000000000127e-01
1.917500000000000038e-01
8.275000000000000411e-02
2.590000000000000080e-01
2.434999999999999942e-01
8.799999999999999489e-02
9.850000000000000422e-02
1.397500000000000131e-01
1.347500000000000087e-01
1.034999999999999948e-01
1.087499999999999994e-01
9.324999999999999956e-02
1.657500000000000084e-01
1.295000000000000040e-01
1.967500000000000082e-01
2.227500000000000036e-01
2.020000000000000129e-01
1.192499999999999949e-01
2.952500000000000124e-01
4.349999999999999978e-01
1.347500000000000087e-01
2.227500000000000036e-01
1.917500000000000038e-01
1.657500000000000084e-01
2.122499999999999942e-01
9.324999999999999956e-02
1.864999999999999991e-01
1.397500000000000131e-01
2.020000000000000129e-01
2.020000000000000129e-01
2.899999999999999800e-01
1.034999999999999948e-01
1.502499999999999947e-01
1.295000000000000040e-01
1.864999999999999991e-01
1.812499999999999944e-01
2.122499999999999942e-01
1.034999999999999948e-01
3.107500000000000262e-01
1.812499999999999944e-01
3.160000000000000031e-01
1.554999999999999993e-01
1.657500000000000084e-01
1.710000000000000131e-01
1.554999999999999993e-01
8.275000000000000411e-02
1.864999999999999991e-01
4.649999999999999967e-02
2.020000000000000129e-01
2.484999999999999987e-01
3.885000000000000120e-01
4.247500000000000164e-01
4.092500000000000027e-01
4.455000000000000071e-01
3.160000000000000031e-01
3.262499999999999845e-01
5.180000000000000160e-01
1.864999999999999991e-01
2.642499999999999849e-01
2.330000000000000127e-01
2.382499999999999896e-01
2.330000000000000127e-01
1.242499999999999993e-01
2.072499999999999898e-01
1.917500000000000038e-01
2.484999999999999987e-01
1.657500000000000084e-01
5.024999999999999467e-01
6.577499999999999458e-01
9.324999999999999956e-02
2.590000000000000080e-01
2.382499999999999896e-01
1.449999999999999900e-01
9.850000000000000422e-02
1.605000000000000038e-01
2.590000000000000080e-01
2.537499999999999756e-01
1.295000000000000040e-01
9.324999999999999956e-02
2.020000000000000129e-01
1.710000000000000131e-01
1.710000000000000131e-01
7.774999999999999967e-02
2.020000000000000129e-01
1.034999999999999948e-01
2.122499999999999942e-01
1.917500000000000038e-01
1.554999999999999993e-01
1.759999999999999898e-01
9.850000000000000422e-02
7.774999999999999967e-02
7.774999999999999967e-02
8.799999999999999489e-02
6.725000000000000422e-02
5.174999999999999739e-02
1.192499999999999949e-01
9.850000000000000422e-02
1.397500000000000131e-01
2.745000000000000218e-01
7.774999999999999967e-02
2.020000000000000129e-01
1.917500000000000038e-01
5.174999999999999739e-02
7.249999999999999500e-02
7.774999999999999967e-02
4.649999999999999967e-02
5.174999999999999739e-02
6.725000000000000422e-02
8.799999999999999489e-02
1.502499999999999947e-01
2.330000000000000127e-01
6.224999999999999978e-02
2.537499999999999756e-01
4.299999999999999933e-01
1.449999999999999900e-01
1.397500000000000131e-01
1.087499999999999994e-01
6.725000000000000422e-02
5.174999999999999739e-02
7.249999999999999500e-02
7.249999999999999500e-02
2.227500000000000036e-01
1.034999999999999948e-01
1.347500000000000087e-01
8.275000000000000411e-02
7.774999999999999967e-02
6.725000000000000422e-02
8.799999999999999489e-02
7.774999999999999967e-02
2.020000000000000129e-01
1.967500000000000082e-01
5.174999999999999739e-02
8.275000000000000411e-02
5.174999999999999739e-02
6.224999999999999978e-02
5.174999999999999739e-02
9.850000000000000422e-02
5.700000000000000205e-02
5.700000000000000205e-02
5.700000000000000205e-02
6.224999999999999978e-02
6.224999999999999978e-02
5.700000000000000205e-02
7.249999999999999500e-02
4.649999999999999967e-02
7.774999999999999967e-02
4.150000000000000216e-02
4.649999999999999967e-02
7.249999999999999500e-02
1.710000000000000131e-01
1.192499999999999949e-01
5.174999999999999739e-02
5.700000000000000205e-02
1.812499999999999944e-01
1.192499999999999949e-01
5.174999999999999739e-02
5.700000000000000205e-02
2.227500000000000036e-01
6.725000000000000422e-02
6.224999999999999978e-02
5.700000000000000205e-02
1.554999999999999993e-01
5.174999999999999739e-02
3.624999999999999750e-02
1.967500000000000082e-01
1.192499999999999949e-01
2.797499999999999987e-01
9.850000000000000422e-02
7.249999999999999500e-02
1.864999999999999991e-01
7.249999999999999500e-02
6.725000000000000422e-02
1.657500000000000084e-01
1.759999999999999898e-01
1.140000000000000041e-01
1.502499999999999947e-01
6.725000000000000422e-02
1.242499999999999993e-01
2.020000000000000129e-01
7.249999999999999500e-02
7.249999999999999500e-02
6.725000000000000422e-02
1.140000000000000041e-01
1.242499999999999993e-01
6.725000000000000422e-02
5.700000000000000205e-02
7.774999999999999967e-02
8.799999999999999489e-02
8.275000000000000411e-02
1.605000000000000038e-01
7.249999999999999500e-02
7.249999999999999500e-02
5.174999999999999739e-02
6.725000000000000422e-02
5.174999999999999739e-02
7.249999999999999500e-02
7.249999999999999500e-02
6.725000000000000422e-02
5.700000000000000205e-02
6.224999999999999978e-02
4.649999999999999967e-02
5.174999999999999739e-02
1.087499999999999994e-01
6.725000000000000422e-02
5.174999999999999739e-02
5.700000000000000205e-02
7.249999999999999500e-02
5.700000000000000205e-02
2.590000000000000080e-01
5.700000000000000205e-02
4.649999999999999967e-02
2.020000000000000129e-01
9.324999999999999956e-02
2.537499999999999756e-01
1.295000000000000040e-01
1.295000000000000040e-01
2.537499999999999756e-01
1.087499999999999994e-01
1.812499999999999944e-01
1.605000000000000038e-01
1.759999999999999898e-01
1.605000000000000038e-01
1.605000000000000038e-01
1.347500000000000087e-01
2.020000000000000129e-01
1.347500000000000087e-01
1.657500000000000084e-01
1.034999999999999948e-01
1.759999999999999898e-01
1.864999999999999991e-01
1.034999999999999948e-01
1.087499999999999994e-01
1.605000000000000038e-01
1.605000000000000038e-01
2.020000000000000129e-01
1.605000000000000038e-01
1.295000000000000040e-01
1.242499999999999993e-01
1.812499999999999944e-01
9.324999999999999956e-02
1.917500000000000038e-01
1.657500000000000084e-01
7.774999999999999967e-02
2.280000000000000082e-01
1.759999999999999898e-01
1.812499999999999944e-01
1.140000000000000041e-01
1.812499999999999944e-01
6.224999999999999978e-02
1.759999999999999898e-01
9.850000000000000422e-02
6.224999999999999978e-02
2.122499999999999942e-01
7.249999999999999500e-02
1.864999999999999991e-01
1.657500000000000084e-01
4.150000000000000216e-02
2.382499999999999896e-01
1.087499999999999994e-01
1.449999999999999900e-01
1.657500000000000084e-01
1.347500000000000087e-01
1.140000000000000041e-01
1.917500000000000038e-01
6.224999999999999978e-02
1.657500000000000084e-01
7.774999999999999967e-02
1.812499999999999944e-01
8.799999999999999489e-02
8.275000000000000411e-02
1.759999999999999898e-01
1.087499999999999994e-01
1.605000000000000038e-01
1.295000000000000040e-01
1.554999999999999993e-01
1.502499999999999947e-01
2.122499999999999942e-01
1.034999999999999948e-01
1.605000000000000038e-01
1.295000000000000040e-01
1.242499999999999993e-01
8.799999999999999489e-02
6.224999999999999978e-02
1.449999999999999900e-01
1.295000000000000040e-01
1.554999999999999993e-01
1.140000000000000041e-01
1.657500000000000084e-01
1.967500000000000082e-01
7.774999999999999967e-02
2.280000000000000082e-01
1.034999999999999948e-01
2.797499999999999987e-01
1.140000000000000041e-01
5.700000000000000205e-02
2.745000000000000218e-01
9.850000000000000422e-02
8.275000000000000411e-02
2.122499999999999942e-01
1.657500000000000084e-01
8.275000000000000411e-02
6.725000000000000422e-02
1.034999999999999948e-01
8.275000000000000411e-02
1.812499999999999944e-01
1.917500000000000038e-01
9.850000000000000422e-02
2.122499999999999942e-01
2.537499999999999756e-01
1.295000000000000040e-01
8.799999999999999489e-02
5.174999999999999739e-02
6.224999999999999978e-02
5.174999999999999739e-02
8.799999999999999489e-02
6.224999999999999978e-02
6.725000000000000422e-02
6.224999999999999978e-02
3.624999999999999750e-02
5.700000000000000205e-02
7.249999999999999500e-02
1.140000000000000041e-01
8.275000000000000411e-02
5.174999999999999739e-02
6.725000000000000422e-02
6.725000000000000422e-02
6.224999999999999978e-02
4.649999999999999967e-02
4.649999999999999967e-02
6.224999999999999978e-02
5.700000000000000205e-02
1.657500000000000084e-01
1.242499999999999993e-01
1.449999999999999900e-01
8.799999999999999489e-02
9.850000000000000422e-02
7.249999999999999500e-02
5.174999999999999739e-02
1.397500000000000131e-01
1.192499999999999949e-01
1.347500000000000087e-01
5.700000000000000205e-02
5.174999999999999739e-02
6.224999999999999978e-02
6.224999999999999978e-02
5.700000000000000205e-02
7.774999999999999967e-02
2.072499999999999898e-01
9.324999999999999956e-02
6.725000000000000422e-02
6.224999999999999978e-02
5.174999999999999739e-02
6.725000000000000422e-02
6.224999999999999978e-02
7.249999999999999500e-02
6.224999999999999978e-02
5.174999999999999739e-02
2.280000000000000082e-01
8.275000000000000411e-02
1.759999999999999898e-01
1.502499999999999947e-01
4.649999999999999967e-02
8.275000000000000411e-02
9.850000000000000422e-02
4.150000000000000216e-02
5.174999999999999739e-02
7.249999999999999500e-02
6.224999999999999978e-02
1.140000000000000041e-01
6.224999999999999978e-02
4.649999999999999967e-02
5.700000000000000205e-02
4.649999999999999967e-02
8.799999999999999489e-02
6.725000000000000422e-02
9.324999999999999956e-02
1.242499999999999993e-01
6.224999999999999978e-02
4.649999999999999967e-02
5.174999999999999739e-02
6.224999999999999978e-02
8.275000000000000411e-02
8.275000000000000411e-02
7.249999999999999500e-02
6.725000000000000422e-02
6.725000000000000422e-02
6.725000000000000422e-02
7.774999999999999967e-02
1.087499999999999994e-01
8.275000000000000411e-02
8.275000000000000411e-02
8.799999999999999489e-02
6.224999999999999978e-02
5.700000000000000205e-02
4.150000000000000216e-02
4.150000000000000216e-02
5.700000000000000205e-02
6.224999999999999978e-02
8.275000000000000411e-02
6.224999999999999978e-02
6.725000000000000422e-02
8.799999999999999489e-02
4.649999999999999967e-02
6.725000000000000422e-02
4.649999999999999967e-02
5.700000000000000205e-02
5.174999999999999739e-02
5.700000000000000205e-02
4.150000000000000216e-02
6.224999999999999978e-02
5.700000000000000205e-02
5.700000000000000205e-02
4.150000000000000216e-02
5.700000000000000205e-02
6.224999999999999978e-02
6.725000000000000422e-02
4.649999999999999967e-02
4.649999999999999967e-02
6.224999999999999978e-02
7.249999999999999500e-02
5.174999999999999739e-02
6.725000000000000422e-02
6.224999999999999978e-02
6.224999999999999978e-02
5.174999999999999739e-02
7.249999999999999500e-02
4.649999999999999967e-02
7.774999999999999967e-02
6.725000000000000422e-02
8.799999999999999489e-02
7.774999999999999967e-02
8.799999999999999489e-02
9.324999999999999956e-02
6.725000000000000422e-02
6.725000000000000422e-02
6.224999999999999978e-02
6.224999999999999978e-02
5.700000000000000205e-02
7.774999999999999967e-02
1.710000000000000131e-01
1.087499999999999994e-01
1.347500000000000087e-01
5.700000000000000205e-02
6.224999999999999978e-02
8.275000000000000411e-02
7.774999999999999967e-02
5.174999999999999739e-02
5.700000000000000205e-02
5.174999999999999739e-02
6.725000000000000422e-02
5.700000000000000205e-02
5.700000000000000205e-02
6.224999999999999978e-02
1.087499999999999994e-01
5.174999999999999739e-02
6.725000000000000422e-02
5.174999999999999739e-02
6.224999999999999978e-02
6.224999999999999978e-02
5.700000000000000205e-02
1.347500000000000087e-01
7.249999999999999500e-02
6.725000000000000422e-02
4.649999999999999967e-02
8.275000000000000411e-02
2.227500000000000036e-01
7.774999999999999967e-02
9.850000000000000422e-02
5.174999999999999739e-02
7.249999999999999500e-02
7.774999999999999967e-02
7.774999999999999967e-02
5.700000000000000205e-02
3.624999999999999750e-02
4.649999999999999967e-02
7.774999999999999967e-02
1.087499999999999994e-01
8.799999999999999489e-02
9.324999999999999956e-02
6.725000000000000422e-02
1.242499999999999993e-01
4.150000000000000216e-02
4.649999999999999967e-02
5.174999999999999739e-02
5.174999999999999739e-02
1.295000000000000040e-01
7.774999999999999967e-02
6.224999999999999978e-02
6.725000000000000422e-02
4.649999999999999967e-02
6.725000000000000422e-02
6.224999999999999978e-02
6.725000000000000422e-02
9.850000000000000422e-02
8.275000000000000411e-02
6.725000000000000422e-02
4.150000000000000216e-02
6.725000000000000422e-02
4.150000000000000216e-02
7.249999999999999500e-02
6.224999999999999978e-02
6.224999999999999978e-02
5.174999999999999739e-02
4.649999999999999967e-02
4.150000000000000216e-02
3.624999999999999750e-02
8.799999999999999489e-02
6.725000000000000422e-02
8.275000000000000411e-02
4.150000000000000216e-02
3.624999999999999750e-02
1.140000000000000041e-01
6.725000000000000422e-02
6.224999999999999978e-02
6.224999999999999978e-02
6.224999999999999978e-02
6.224999999999999978e-02
6.725000000000000422e-02
4.150000000000000216e-02
5.700000000000000205e-02
7.249999999999999500e-02
5.700000000000000205e-02
5.700000000000000205e-02
5.174999999999999739e-02
6.725000000000000422e-02
9.850000000000000422e-02
5.700000000000000205e-02
4.649999999999999967e-02
6.725000000000000422e-02
1.242499999999999993e-01
5.700000000000000205e-02
4.649999999999999967e-02
7.774999999999999967e-02
6.725000000000000422e-02
6.224999999999999978e-02
4.649999999999999967e-02
6.725000000000000422e-02
8.275000000000000411e-02
1.242499999999999993e-01
7.249999999999999500e-02
4.150000000000000216e-02
5.174999999999999739e-02
7.774999999999999967e-02
6.224999999999999978e-02
7.249999999999999500e-02
6.224999999999999978e-02
8.799999999999999489e-02
9.850000000000000422e-02
5.174999999999999739e-02
5.174999999999999739e-02
5.700000000000000205e-02
7.774999999999999967e-02
6.224999999999999978e-02
5.174999999999999739e-02
6.725000000000000422e-02
4.649999999999999967e-02
5.700000000000000205e-02
5.174999999999999739e-02
6.725000000000000422e-02
8.799999999999999489e-02
7.249999999999999500e-02
9.324999999999999956e-02
6.224999999999999978e-02
6.725000000000000422e-02
4.150000000000000216e-02
5.174999999999999739e-02
5.700000000000000205e-02
7.774999999999999967e-02
4.649999999999999967e-02
5.700000000000000205e-02
4.649999999999999967e-02
7.249999999999999500e-02
6.224999999999999978e-02
1.140000000000000041e-01
1.347500000000000087e-01
8.799999999999999489e-02
1.397500000000000131e-01
1.917500000000000038e-01
8.799999999999999489e-02
5.174999999999999739e-02
9.324999999999999956e-02
5.700000000000000205e-02
1.034999999999999948e-01
2.072499999999999898e-01
1.034999999999999948e-01
9.850000000000000422e-02
1.864999999999999991e-01
2.330000000000000127e-01
7.774999999999999967e-02
5.174999999999999739e-02
1.140000000000000041e-01
7.249999999999999500e-02
1.034999999999999948e-01
6.725000000000000422e-02
1.140000000000000041e-01
7.249999999999999500e-02
6.725000000000000422e-02
4.649999999999999967e-02
6.224999999999999978e-02
8.275000000000000411e-02
6.224999999999999978e-02
6.224999999999999978e-02
4.649999999999999967e-02
6.224999999999999978e-02
9.324999999999999956e-02
6.725000000000000422e-02
6.725000000000000422e-02
7.249999999999999500e-02
5.174999999999999739e-02
7.774999999999999967e-02
6.725000000000000422e-02
6.725000000000000422e-02
4.649999999999999967e-02
4.649999999999999967e-02
4.649999999999999967e-02
5.700000000000000205e-02
5.700000000000000205e-02
5.700000000000000205e-02
6.224999999999999978e-02
5.174999999999999739e-02
5.700000000000000205e-02
6.224999999999999978e-02
5.174999999999999739e-02
6.224999999999999978e-02
9.324999999999999956e-02
5.700000000000000205e-02
6.725000000000000422e-02
8.275000000000000411e-02
6.725000000000000422e-02
1.087499999999999994e-01
7.249999999999999500e-02
6.725000000000000422e-02
6.224999999999999978e-02
8.275000000000000411e-02
6.224999999999999978e-02
4.150000000000000216e-02
5.174999999999999739e-02
9.850000000000000422e-02
9.324999999999999956e-02
8.799999999999999489e-02
5.700000000000000205e-02
5.700000000000000205e-02
8.799999999999999489e-02
5.700000000000000205e-02
8.275000000000000411e-02
7.774999999999999967e-02
7.774999999999999967e-02
8.275000000000000411e-02
9.850000000000000422e-02
7.249999999999999500e-02
9.850000000000000422e-02
7.249999999999999500e-02
8.799999999999999489e-02
1.295000000000000040e-01
1.034999999999999948e-01
8.799999999999999489e-02
9.850000000000000422e-02
9.324999999999999956e-02
8.799999999999999489e-02
8.799999999999999489e-02
6.725000000000000422e-02
8.799999999999999489e-02
1.397500000000000131e-01
1.295000000000000040e-01
8.799999999999999489e-02
1.242499999999999993e-01
9.324999999999999956e-02
1.140000000000000041e-01
1.502499999999999947e-01
8.799999999999999489e-02
1.295000000000000040e-01
1.295000000000000040e-01
9.850000000000000422e-02
1.554999999999999993e-01
1.657500000000000084e-01
1.759999999999999898e-01
2.122499999999999942e-01
1.034999999999999948e-01
1.759999999999999898e-01
1.967500000000000082e-01
1.034999999999999948e-01
2.020000000000000129e-01
1.140000000000000041e-01
1.449999999999999900e-01
1.087499999999999994e-01
5.700000000000000205e-02
1.295000000000000040e-01
5.174999999999999739e-02
2.330000000000000127e-01
1.812499999999999944e-01
6.725000000000000422e-02
1.397500000000000131e-01
5.174999999999999739e-02
9.850000000000000422e-02
1.605000000000000038e-01
1.242499999999999993e-01
8.275000000000000411e-02
6.224999999999999978e-02
5.174999999999999739e-02
6.725000000000000422e-02
6.224999999999999978e-02
5.700000000000000205e-02
5.174999999999999739e-02
6.224999999999999978e-02
6.224999999999999978e-02
7.774999999999999967e-02
6.725000000000000422e-02
4.150000000000000216e-02
4.649999999999999967e-02
6.725000000000000422e-02
7.774999999999999967e-02
1.242499999999999993e-01
1.554999999999999993e-01
1.140000000000000041e-01
7.249999999999999500e-02
6.725000000000000422e-02
6.224999999999999978e-02
1.087499999999999994e-01
2.122499999999999942e-01
8.275000000000000411e-02
1.034999999999999948e-01
8.799999999999999489e-02
8.799999999999999489e-02
5.700000000000000205e-02
1.449999999999999900e-01
1.087499999999999994e-01
7.774999999999999967e-02
6.224999999999999978e-02
5.700000000000000205e-02
6.725000000000000422e-02
1.397500000000000131e-01
1.864999999999999991e-01
8.799999999999999489e-02
7.774999999999999967e-02
5.174999999999999739e-02
9.850000000000000422e-02
8.799999999999999489e-02
3.624999999999999750e-02
9.850000000000000422e-02
1.967500000000000082e-01
1.759999999999999898e-01
1.140000000000000041e-01
5.174999999999999739e-02
1.242499999999999993e-01
8.275000000000000411e-02
5.174999999999999739e-02
1.192499999999999949e-01
6.224999999999999978e-02
9.850000000000000422e-02
1.034999999999999948e-01
8.799999999999999489e-02
7.249999999999999500e-02
9.324999999999999956e-02
1.605000000000000038e-01
3.367499999999999938e-01
1.242499999999999993e-01
1.034999999999999948e-01
2.692499999999999893e-01
1.192499999999999949e-01
1.812499999999999944e-01
2.174999999999999989e-01
1.347500000000000087e-01
7.249999999999999500e-02
9.324999999999999956e-02
6.725000000000000422e-02
1.034999999999999948e-01
5.700000000000000205e-02
2.122499999999999942e-01
1.295000000000000040e-01
6.224999999999999978e-02
7.774999999999999967e-02
5.174999999999999739e-02
9.324999999999999956e-02
6.224999999999999978e-02
7.774999999999999967e-02
6.725000000000000422e-02
5.174999999999999739e-02
6.224999999999999978e-02
6.224999999999999978e-02
6.224999999999999978e-02
8.799999999999999489e-02
1.554999999999999993e-01
7.774999999999999967e-02
6.725000000000000422e-02
8.799999999999999489e-02
6.725000000000000422e-02
9.850000000000000422e-02
7.249999999999999500e-02
4.649999999999999967e-02
5.700000000000000205e-02
4.150000000000000216e-02
9.850000000000000422e-02
1.864999999999999991e-01
6.725000000000000422e-02
9.850000000000000422e-02
1.140000000000000041e-01
5.700000000000000205e-02
1.192499999999999949e-01
9.850000000000000422e-02
3.624999999999999750e-02
7.249999999999999500e-02
8.799999999999999489e-02
1.087499999999999994e-01
1.759999999999999898e-01
1.759999999999999898e-01
2.899999999999999800e-01
3.107500000000000262e-01
3.624999999999999889e-01
3.107500000000000262e-01
2.537499999999999756e-01
1.657500000000000084e-01
1.087499999999999994e-01
1.917500000000000038e-01
2.849999999999999756e-01
2.434999999999999942e-01
2.227500000000000036e-01
9.850000000000000422e-02
9.850000000000000422e-02
1.657500000000000084e-01
1.140000000000000041e-01
5.700000000000000205e-02
7.249999999999999500e-02
1.295000000000000040e-01
2.537499999999999756e-01
2.484999999999999987e-01
2.174999999999999989e-01
1.087749999999999995e+00
4.662499999999999978e-01
5.697499999999999787e-01
2.227500000000000036e-01
3.937499999999999889e-01
6.732500000000000151e-01
4.040000000000000258e-01
9.324999999999999956e-02
7.249999999999999500e-02
6.224999999999999978e-02
1.034999999999999948e-01
1.140000000000000041e-01
1.242499999999999993e-01
4.247500000000000164e-01
2.280000000000000082e-01
2.537499999999999756e-01
1.502499999999999947e-01
9.850000000000000422e-02
7.774999999999999967e-02
1.502499999999999947e-01
1.034999999999999948e-01
8.275000000000000411e-02
1.347500000000000087e-01
6.224999999999999978e-02
1.087499999999999994e-01
7.249999999999999500e-02
1.140000000000000041e-01
2.952500000000000124e-01
1.554999999999999993e-01
3.780000000000000027e-01
1.034999999999999948e-01
5.174999999999999739e-02
1.087499999999999994e-01
8.799999999999999489e-02
7.249999999999999500e-02
2.434999999999999942e-01
1.034999999999999948e-01
2.330000000000000127e-01
2.174999999999999989e-01
3.417499999999999982e-01
2.899999999999999800e-01
3.780000000000000027e-01
3.262499999999999845e-01
3.885000000000000120e-01
1.140000000000000041e-01
3.004999999999999893e-01
2.952500000000000124e-01
1.864999999999999991e-01
1.087499999999999994e-01
1.502499999999999947e-01
8.799999999999999489e-02
1.710000000000000131e-01
5.700000000000000205e-02
1.140000000000000041e-01
1.864999999999999991e-01
1.554999999999999993e-01
1.140000000000000041e-01
2.227500000000000036e-01
1.967500000000000082e-01
3.054999999999999938e-01
3.262499999999999845e-01
1.554999999999999993e-01
1.034999999999999948e-01
9.324999999999999956e-02
2.434999999999999942e-01
9.850000000000000422e-02
1.192499999999999949e-01
1.034999999999999948e-01
1.917500000000000038e-01
1.295000000000000040e-01
8.799999999999999489e-02
1.967500000000000082e-01
1.347500000000000087e-01
1.192499999999999949e-01
1.347500000000000087e-01
1.554999999999999993e-01
9.324999999999999956e-02
6.725000000000000422e-02
6.224999999999999978e-02
1.657500000000000084e-01
1.864999999999999991e-01
3.417499999999999982e-01
3.832499999999999796e-01
1.967500000000000082e-01
9.324999999999999956e-02
2.434999999999999942e-01
4.299999999999999933e-01
1.812499999999999944e-01
8.799999999999999489e-02
1.657500000000000084e-01
3.469999999999999751e-01
3.212499999999999800e-01
3.417499999999999982e-01
2.590000000000000080e-01
5.074999999999999512e-01
2.745000000000000218e-01
2.590000000000000080e-01
2.899999999999999800e-01
1.034999999999999948e-01
2.072499999999999898e-01
2.484999999999999987e-01
2.899999999999999800e-01
1.917500000000000038e-01
2.020000000000000129e-01
2.382499999999999896e-01
3.574999999999999845e-01
2.537499999999999756e-01
4.299999999999999933e-01
3.469999999999999751e-01
3.624999999999999889e-01
1.917500000000000038e-01
3.469999999999999751e-01
3.367499999999999938e-01
4.092500000000000027e-01
3.469999999999999751e-01
1.967500000000000082e-01
3.212499999999999800e-01
2.484999999999999987e-01
2.484999999999999987e-01
2.227500000000000036e-01
2.745000000000000218e-01
3.832499999999999796e-01
3.624999999999999889e-01
3.832499999999999796e-01
1.554999999999999993e-01
4.299999999999999933e-01
2.227500000000000036e-01
3.262499999999999845e-01
2.382499999999999896e-01
1.967500000000000082e-01
2.280000000000000082e-01
2.280000000000000082e-01
2.174999999999999989e-01
1.657500000000000084e-01
1.449999999999999900e-01
1.759999999999999898e-01
1.347500000000000087e-01
1.502499999999999947e-01
2.642499999999999849e-01
2.537499999999999756e-01
1.397500000000000131e-01
1.449999999999999900e-01
1.864999999999999991e-01
2.280000000000000082e-01
1.397500000000000131e-01
2.849999999999999756e-01
2.174999999999999989e-01
1.347500000000000087e-01
2.122499999999999942e-01
2.122499999999999942e-01
2.122499999999999942e-01
2.122499999999999942e-01
1.864999999999999991e-01
2.590000000000000080e-01
1.759999999999999898e-01
1.710000000000000131e-01
2.280000000000000082e-01
2.072499999999999898e-01
1.140000000000000041e-01
1.605000000000000038e-01
2.227500000000000036e-01
1.864999999999999991e-01
1.710000000000000131e-01
7.249999999999999500e-02
2.020000000000000129e-01
1.759999999999999898e-01
2.484999999999999987e-01
1.242499999999999993e-01
1.710000000000000131e-01
1.554999999999999993e-01
1.759999999999999898e-01
1.864999999999999991e-01
1.295000000000000040e-01
6.725000000000000422e-02
1.397500000000000131e-01
1.917500000000000038e-01
1.347500000000000087e-01
1.140000000000000041e-01
1.710000000000000131e-01
8.275000000000000411e-02
1.710000000000000131e-01
1.502499999999999947e-01
1.347500000000000087e-01
1.192499999999999949e-01
8.799999999999999489e-02
1.242499999999999993e-01
1.295000000000000040e-01
1.917500000000000038e-01
1.347500000000000087e-01
1.554999999999999993e-01
1.710000000000000131e-01
2.174999999999999989e-01
1.449999999999999900e-01
2.434999999999999942e-01
1.502499999999999947e-01
2.382499999999999896e-01
1.502499999999999947e-01
1.449999999999999900e-01
2.122499999999999942e-01
2.382499999999999896e-01
2.174999999999999989e-01
2.330000000000000127e-01
1.812499999999999944e-01
1.710000000000000131e-01
2.382499999999999896e-01
3.004999999999999893e-01
1.917500000000000038e-01
2.434999999999999942e-01
5.645000000000000018e-01
7.770000000000000240e-01
1.419249999999999901e+00
3.004999999999999893e-01
2.642499999999999849e-01
2.072499999999999898e-01
2.484999999999999987e-01
2.745000000000000218e-01
2.174999999999999989e-01
2.434999999999999942e-01
2.537499999999999756e-01
4.662499999999999978e-01
3.054999999999999938e-01
3.262499999999999845e-01
3.160000000000000031e-01
2.849999999999999756e-01
3.937499999999999889e-01
2.692499999999999893e-01
4.092500000000000027e-01
2.174999999999999989e-01
3.004999999999999893e-01
3.937499999999999889e-01
2.434999999999999942e-01
2.072499999999999898e-01
2.849999999999999756e-01
7.614999999999999547e-01
6.524999999999999689e-01
6.784999999999999920e-01
1.242499999999999993e-01
5.127500000000000391e-01
3.624999999999999889e-01
4.349999999999999978e-01
2.122499999999999942e-01
5.437499999999999556e-01
3.522500000000000075e-01
5.127500000000000391e-01
1.710000000000000131e-01
4.712500000000000022e-01
1.237999999999999989e+00
2.590000000000000080e-01
4.247500000000000164e-01
3.832499999999999796e-01
1.196499999999999897e+00
8.547500000000000098e-01
1.284499999999999975e+00
1.507249999999999979e+00
8.442499999999999449e-01
7.717500000000000471e-01
5.644750000000000156e+00
3.608999999999999986e+00
-6.036249999999999893e+00
5.556499999999999773e+00
-7.604750000000000121e+00
2.745000000000000218e-01
1.917500000000000038e-01
2.745000000000000218e-01
4.092500000000000027e-01
4.092500000000000027e-01
4.247500000000000164e-01
1.812499999999999944e-01
2.174999999999999989e-01
1.087499999999999994e-01
-2.145500000000000185e+00
-5.216750000000000220e+00
4.662499999999999978e-01
1.967500000000000082e-01
2.484999999999999987e-01
1.864999999999999991e-01
1.864999999999999991e-01
3.212499999999999800e-01
1.864999999999999991e-01
1.034999999999999948e-01
1.192499999999999949e-01
7.774999999999999967e-02
1.554999999999999993e-01
1.554999999999999993e-01
1.034999999999999948e-01
1.657500000000000084e-01
2.434999999999999942e-01
1.295000000000000040e-01
7.774999999999999967e-02
8.799999999999999489e-02
1.397500000000000131e-01
2.227500000000000036e-01
3.729999999999999982e-01
3.885000000000000120e-01
3.522500000000000075e-01
2.484999999999999987e-01
3.262499999999999845e-01
2.020000000000000129e-01
3.522500000000000075e-01
5.957500000000000018e-01
7.095000000000000195e-01
2.227500000000000036e-01
2.122499999999999942e-01
3.004999999999999893e-01
1.967500000000000082e-01
2.072499999999999898e-01
1.034999999999999948e-01
2.227500000000000036e-01
1.710000000000000131e-01
1.502499999999999947e-01
1.034999999999999948e-01
6.725000000000000422e-02
8.799999999999999489e-02
1.034999999999999948e-01
7.774999999999999967e-02
2.122499999999999942e-01
5.174999999999999739e-02
2.382499999999999896e-01
3.417499999999999982e-01
6.630000000000000338e-01
1.502499999999999947e-01
3.262499999999999845e-01
1.605000000000000038e-01
2.122499999999999942e-01
1.397500000000000131e-01
1.295000000000000040e-01
2.072499999999999898e-01
1.192499999999999949e-01
7.249999999999999500e-02
1.967500000000000082e-01
1.554999999999999993e-01
9.850000000000000422e-02
1.605000000000000038e-01
1.449999999999999900e-01
1.449999999999999900e-01
1.295000000000000040e-01
1.140000000000000041e-01
8.799999999999999489e-02
1.192499999999999949e-01
9.850000000000000422e-02
1.347500000000000087e-01
6.725000000000000422e-02
9.850000000000000422e-02
5.174999999999999739e-02
1.140000000000000041e-01
5.174999999999999739e-02
6.725000000000000422e-02
5.700000000000000205e-02
5.700000000000000205e-02
4.649999999999999967e-02
5.700000000000000205e-02
4.649999999999999967e-02
6.725000000000000422e-02
5.174999999999999739e-02
6.224999999999999978e-02
7.774999999999999967e-02
9.324999999999999956e-02
5.700000000000000205e-02
5.700000000000000205e-02
5.700000000000000205e-02
6.224999999999999978e-02
8.275000000000000411e-02
6.725000000000000422e-02
6.725000000000000422e-02
5.700000000000000205e-02
4.649999999999999967e-02
7.249999999999999500e-02
7.774999999999999967e-02
6.224999999999999978e-02
8.275000000000000411e-02
5.700000000000000205e-02
4.649999999999999967e-02
5.174999999999999739e-02
4.649999999999999967e-02
6.224999999999999978e-02
4.649999999999999967e-02
5.174999999999999739e-02
6.224999999999999978e-02
4.150000000000000216e-02
9.850000000000000422e-02
7.249999999999999500e-02
3.624999999999999750e-02
4.649999999999999967e-02
5.700000000000000205e-02
6.725000000000000422e-02
4.649999999999999967e-02
4.649999999999999967e-02
5.174999999999999739e-02
4.649999999999999967e-02
4.649999999999999967e-02
7.774999999999999967e-02
7.774999999999999967e-02
5.700000000000000205e-02
5.700000000000000205e-02
3.624999999999999750e-02
6.725000000000000422e-02
5.700000000000000205e-02
4.649999999999999967e-02
5.700000000000000205e-02
5.174999999999999739e-02
5.700000000000000205e-02
4.649999999999999967e-02
5.700000000000000205e-02
8.799999999999999489e-02
7.774999999999999967e-02
6.725000000000000422e-02
5.700000000000000205e-02
5.700000000000000205e-02
4.649999999999999967e-02
5.174999999999999739e-02
6.224999999999999978e-02
6.725000000000000422e-02
4.649999999999999967e-02
5.700000000000000205e-02
4.150000000000000216e-02
7.249999999999999500e-02
8.799999999999999489e-02
6.224999999999999978e-02
6.224999999999999978e-02
4.649999999999999967e-02
6.224999999999999978e-02
5.174999999999999739e-02
5.174999999999999739e-02
5.174999999999999739e-02
5.700000000000000205e-02
7.249999999999999500e-02
7.249999999999999500e-02
7.774999999999999967e-02
8.799999999999999489e-02
4.150000000000000216e-02
4.150000000000000216e-02
4.150000000000000216e-02
5.700000000000000205e-02
3.099999999999999978e-02
5.700000000000000205e-02
6.224999999999999978e-02
5.174999999999999739e-02
5.700000000000000205e-02
6.725000000000000422e-02
7.249999999999999500e-02
7.249999999999999500e-02
7.249999999999999500e-02
7.249999999999999500e-02
6.725000000000000422e-02
4.649999999999999967e-02
7.249999999999999500e-02
4.649999999999999967e-02
6.224999999999999978e-02
5.700000000000000205e-02
6.224999999999999978e-02
5.700000000000000205e-02
6.725000000000000422e-02
6.224999999999999978e-02
9.324999999999999956e-02
7.774999999999999967e-02
5.174999999999999739e-02
7.249999999999999500e-02
4.150000000000000216e-02
6.224999999999999978e-02
4.649999999999999967e-02
4.649999999999999967e-02
5.700000000000000205e-02
7.774999999999999967e-02
7.249999999999999500e-02
5.700000000000000205e-02
4.150000000000000216e-02
8.799999999999999489e-02
7.249999999999999500e-02
5.174999999999999739e-02
6.224999999999999978e-02
4.150000000000000216e-02
7.774999999999999967e-02
6.725000000000000422e-02
4.649999999999999967e-02
5.700000000000000205e-02
5.174999999999999739e-02
6.224999999999999978e-02
6.725000000000000422e-02
8.275000000000000411e-02
7.774999999999999967e-02
8.275000000000000411e-02
5.700000000000000205e-02
7.774999999999999967e-02
4.649999999999999967e-02
4.649999999999999967e-02
4.649999999999999967e-02
6.224999999999999978e-02
4.649999999999999967e-02
5.700000000000000205e-02
5.700000000000000205e-02
4.649999999999999967e-02
6.224999999999999978e-02
7.249999999999999500e-02
8.275000000000000411e-02
4.150000000000000216e-02
3.624999999999999750e-02
4.150000000000000216e-02
5.700000000000000205e-02
7.249999999999999500e-02
5.174999999999999739e-02
5.174999999999999739e-02
5.174999999999999739e-02
8.275000000000000411e-02
6.224999999999999978e-02
5.700000000000000205e-02
5.700000000000000205e-02
1.034999999999999948e-01
5.700000000000000205e-02
5.174999999999999739e-02
4.150000000000000216e-02
5.700000000000000205e-02
6.224999999999999978e-02
6.224999999999999978e-02
6.725000000000000422e-02
4.649999999999999967e-02
5.174999999999999739e-02
5.174999999999999739e-02
4.649999999999999967e-02
5.174999999999999739e-02
9.850000000000000422e-02
4.649999999999999967e-02
6.224999999999999978e-02
4.649999999999999967e-02
5.700000000000000205e-02
7.774999999999999967e-02
5.700000000000000205e-02
6.725000000000000422e-02
4.649999999999999967e-02
5.174999999999999739e-02
5.174999999999999739e-02
5.174999999999999739e-02
6.725000000000000422e-02
9.324999999999999956e-02
6.725000000000000422e-02
6.224999999999999978e-02
6.224999999999999978e-02
6.725000000000000422e-02
5.700000000000000205e-02
5.174999999999999739e-02
7.249999999999999500e-02
8.275000000000000411e-02
7.774999999999999967e-02
5.174999999999999739e-02
4.649999999999999967e-02
6.224999999999999978e-02
5.700000000000000205e-02
5.174999999999999739e-02
5.174999999999999739e-02
5.700000000000000205e-02
5.174999999999999739e-02
7.249999999999999500e-02
6.725000000000000422e-02
5.700000000000000205e-02
4.649999999999999967e-02
6.725000000000000422e-02
5.700000000000000205e-02
5.700000000000000205e-02
1.087499999999999994e-01
4.649999999999999967e-02
5.700000000000000205e-02
6.725000000000000422e-02
1.034999999999999948e-01
4.649999999999999967e-02
8.275000000000000411e-02
5.700000000000000205e-02
5.700000000000000205e-02
6.224999999999999978e-02
5.174999999999999739e-02
9.324999999999999956e-02
7.774999999999999967e-02
9.850000000000000422e-02
6.224999999999999978e-02
6.224999999999999978e-02
4.150000000000000216e-02
5.700000000000000205e-02
4.649999999999999967e-02
5.174999999999999739e-02
5.700000000000000205e-02
5.700000000000000205e-02
4.649999999999999967e-02
5.174999999999999739e-02
7.774999999999999967e-02
6.725000000000000422e-02
8.799999999999999489e-02
5.700000000000000205e-02
5.174999999999999739e-02
8.799999999999999489e-02
4.150000000000000216e-02
7.774999999999999967e-02
6.224999999999999978e-02
7.249999999999999500e-02
4.150000000000000216e-02
5.700000000000000205e-02
6.224999999999999978e-02
4.649999999999999967e-02
6.725000000000000422e-02
1.295000000000000040e-01
7.249999999999999500e-02
5.174999999999999739e-02
6.224999999999999978e-02
5.174999999999999739e-02
6.224999999999999978e-02
5.174999999999999739e-02
4.649999999999999967e-02
5.174999999999999739e-02
5.174999999999999739e-02
5.700000000000000205e-02
5.174999999999999739e-02
5.174999999999999739e-02
7.774999999999999967e-02
8.275000000000000411e-02
4.150000000000000216e-02
5.174999999999999739e-02
8.275000000000000411e-02
6.224999999999999978e-02
7.774999999999999967e-02
4.649999999999999967e-02
5.700000000000000205e-02
5.174999999999999739e-02
6.224999999999999978e-02
7.774999999999999967e-02
5.700000000000000205e-02
5.700000000000000205e-02
1.140000000000000041e-01
6.224999999999999978e-02
6.224999999999999978e-02
5.174999999999999739e-02
5.174999999999999739e-02
5.700000000000000205e-02
6.224999999999999978e-02
5.174999999999999739e-02
5.174999999999999739e-02
6.224999999999999978e-02
7.249999999999999500e-02
7.774999999999999967e-02
3.624999999999999750e-02
8.799999999999999489e-02
5.174999999999999739e-02
5.700000000000000205e-02
5.174999999999999739e-02
6.725000000000000422e-02
5.700000000000000205e-02
6.224999999999999978e-02
5.174999999999999739e-02
5.700000000000000205e-02
5.174999999999999739e-02
5.174999999999999739e-02
6.224999999999999978e-02
7.249999999999999500e-02
6.725000000000000422e-02
5.174999999999999739e-02
4.649999999999999967e-02
5.174999999999999739e-02
4.150000000000000216e-02
7.249999999999999500e-02
6.224999999999999978e-02
6.224999999999999978e-02
5.174999999999999739e-02
7.249999999999999500e-02
5.174999999999999739e-02
4.150000000000000216e-02
5.174999999999999739e-02
1.140000000000000041e-01
5.174999999999999739e-02
6.224999999999999978e-02
5.174999999999999739e-02
6.224999999999999978e-02
4.649999999999999967e-02
5.700000000000000205e-02
4.150000000000000216e-02
6.725000000000000422e-02
5.174999999999999739e-02
5.174999999999999739e-02
4.150000000000000216e-02
5.700000000000000205e-02
8.799999999999999489e-02
4.649999999999999967e-02
4.649999999999999967e-02
5.700000000000000205e-02
5.700000000000000205e-02
7.774999999999999967e-02
4.649999999999999967e-02
6.224999999999999978e-02
4.150000000000000216e-02
4.649999999999999967e-02
6.224999999999999978e-02
8.275000000000000411e-02
4.150000000000000216e-02
6.725000000000000422e-02
5.700000000000000205e-02
5.174999999999999739e-02
5.700000000000000205e-02
6.224999999999999978e-02
4.649999999999999967e-02
4.150000000000000216e-02
5.700000000000000205e-02
3.624999999999999750e-02
4.649999999999999967e-02
4.150000000000000216e-02
6.725000000000000422e-02
5.700000000000000205e-02
7.774999999999999967e-02
6.224999999999999978e-02
5.700000000000000205e-02
4.649999999999999967e-02
7.774999999999999967e-02
6.224999999999999978e-02
6.725000000000000422e-02
3.099999999999999978e-02
6.224999999999999978e-02
5.174999999999999739e-02
6.224999999999999978e-02
5.174999999999999739e-02
3.624999999999999750e-02
7.774999999999999967e-02
5.174999999999999739e-02
5.700000000000000205e-02
5.174999999999999739e-02
6.224999999999999978e-02
6.224999999999999978e-02
4.649999999999999967e-02
4.649999999999999967e-02
6.725000000000000422e-02
1.034999999999999948e-01
8.275000000000000411e-02
4.649999999999999967e-02
7.249999999999999500e-02
6.725000000000000422e-02
7.249999999999999500e-02
5.174999999999999739e-02
1.242499999999999993e-01
6.224999999999999978e-02
6.725000000000000422e-02
5.174999999999999739e-02
3.624999999999999750e-02
4.150000000000000216e-02
5.174999999999999739e-02
1.034999999999999948e-01
5.645000000000000018e-01
6.837499999999999689e-01
4.299999999999999933e-01
5.437499999999999556e-01
4.349999999999999978e-01
5.905000000000000249e-01
9.789999999999999813e-01
6.837499999999999689e-01
4.764999999999999791e-01
5.127500000000000391e-01
7.252499999999999503e-01
5.542500000000000204e-01
5.490000000000000435e-01
4.712500000000000022e-01
4.972500000000000253e-01
7.095000000000000195e-01
5.180000000000000160e-01
4.505000000000000115e-01
5.282499999999999973e-01
7.510000000000000009e-01
8.702499999999999680e-01
5.594999999999999973e-01
1.967500000000000082e-01
1.502499999999999947e-01
1.812499999999999944e-01
2.692499999999999893e-01
5.180000000000000160e-01
2.072499999999999898e-01
2.692499999999999893e-01
4.505000000000000115e-01
4.247500000000000164e-01
4.142500000000000071e-01
4.557499999999999885e-01
3.574999999999999845e-01
1.657500000000000084e-01
2.590000000000000080e-01
1.759999999999999898e-01
1.397500000000000131e-01
2.642499999999999849e-01
2.537499999999999756e-01
5.700000000000000205e-02
7.774999999999999967e-02
1.140000000000000041e-01
4.150000000000000216e-02
3.624999999999999750e-02
4.649999999999999967e-02
5.700000000000000205e-02
1.242499999999999993e-01
2.072499999999999898e-01
5.700000000000000205e-02
6.224999999999999978e-02
5.174999999999999739e-02
7.774999999999999967e-02
4.649999999999999967e-02
8.799999999999999489e-02
6.224999999999999978e-02
6.224999999999999978e-02
6.224999999999999978e-02
3.729999999999999982e-01
6.007500000000000062e-01
5.594999999999999973e-01
5.127500000000000391e-01
1.449999999999999900e-01
1.140000000000000041e-01
1.347500000000000087e-01
3.885000000000000120e-01
2.849999999999999756e-01
2.537499999999999756e-01
4.610000000000000209e-01
3.574999999999999845e-01
2.382499999999999896e-01
2.642499999999999849e-01
1.812499999999999944e-01
2.590000000000000080e-01
2.590000000000000080e-01
6.837499999999999689e-01
2.590000000000000080e-01
9.324999999999999956e-02
1.710000000000000131e-01
1.087499999999999994e-01
7.774999999999999967e-02
8.799999999999999489e-02
8.275000000000000411e-02
6.725000000000000422e-02
1.087499999999999994e-01
1.710000000000000131e-01
6.224999999999999978e-02
8.275000000000000411e-02
9.850000000000000422e-02
5.174999999999999739e-02
5.700000000000000205e-02
2.072499999999999898e-01
9.850000000000000422e-02
6.725000000000000422e-02
1.710000000000000131e-01
1.034999999999999948e-01
1.759999999999999898e-01
8.799999999999999489e-02
1.449999999999999900e-01
6.725000000000000422e-02
1.967500000000000082e-01
5.700000000000000205e-02
2.020000000000000129e-01
2.020000000000000129e-01
4.649999999999999967e-02
1.347500000000000087e-01
6.725000000000000422e-02
1.347500000000000087e-01
9.850000000000000422e-02
1.034999999999999948e-01
1.502499999999999947e-01
1.502499999999999947e-01
5.700000000000000205e-02
4.150000000000000216e-02
1.242499999999999993e-01
1.502499999999999947e-01
7.249999999999999500e-02
1.449999999999999900e-01
6.725000000000000422e-02
1.140000000000000041e-01
5.174999999999999739e-02
1.759999999999999898e-01
1.397500000000000131e-01
6.725000000000000422e-02
5.700000000000000205e-02
1.242499999999999993e-01
6.224999999999999978e-02
1.347500000000000087e-01
5.700000000000000205e-02
1.605000000000000038e-01
7.774999999999999967e-02
5.174999999999999739e-02
1.812499999999999944e-01
1.295000000000000040e-01
8.275000000000000411e-02
1.295000000000000040e-01
7.249999999999999500e-02
8.275000000000000411e-02
8.799999999999999489e-02
9.324999999999999956e-02
3.624999999999999750e-02
6.224999999999999978e-02
1.192499999999999949e-01
5.700000000000000205e-02
4.150000000000000216e-02
4.150000000000000216e-02
4.150000000000000216e-02
5.174999999999999739e-02
5.174999999999999739e-02
1.812499999999999944e-01
6.725000000000000422e-02
7.774999999999999967e-02
2.122499999999999942e-01
2.434999999999999942e-01
5.700000000000000205e-02
1.812499999999999944e-01
7.774999999999999967e-02
7.249999999999999500e-02
6.725000000000000422e-02
9.324999999999999956e-02
8.799999999999999489e-02
8.799999999999999489e-02
2.072499999999999898e-01
1.140000000000000041e-01
7.249999999999999500e-02
9.324999999999999956e-02
6.725000000000000422e-02
1.449999999999999900e-01
5.174999999999999739e-02
5.700000000000000205e-02
6.725000000000000422e-02
5.174999999999999739e-02
7.774999999999999967e-02
4.649999999999999967e-02
6.725000000000000422e-02
5.174999999999999739e-02
9.850000000000000422e-02
6.725000000000000422e-02
6.725000000000000422e-02
6.224999999999999978e-02
8.799999999999999489e-02
6.224999999999999978e-02
5.700000000000000205e-02
5.174999999999999739e-02
4.649999999999999967e-02
4.649999999999999967e-02
6.224999999999999978e-02
5.174999999999999739e-02
6.224999999999999978e-02
5.174999999999999739e-02
6.224999999999999978e-02
6.224999999999999978e-02
4.649999999999999967e-02
7.774999999999999967e-02
8.275000000000000411e-02
9.324999999999999956e-02
8.275000000000000411e-02
7.249999999999999500e-02
6.725000000000000422e-02
6.224999999999999978e-02
6.224999999999999978e-02
5.700000000000000205e-02
5.700000000000000205e-02
6.224999999999999978e-02
6.725000000000000422e-02
5.700000000000000205e-02
8.799999999999999489e-02
7.249999999999999500e-02
4.150000000000000216e-02
7.249999999999999500e-02
6.725000000000000422e-02
6.224999999999999978e-02
7.249999999999999500e-02
7.774999999999999967e-02
4.649999999999999967e-02
6.725000000000000422e-02
6.725000000000000422e-02
6.725000000000000422e-02
6.725000000000000422e-02
1.034999999999999948e-01
1.087499999999999994e-01
5.174999999999999739e-02
6.224999999999999978e-02
6.725000000000000422e-02
6.725000000000000422e-02
7.249999999999999500e-02
8.275000000000000411e-02
6.224999999999999978e-02
6.725000000000000422e-02
7.249999999999999500e-02
6.224999999999999978e-02
6.725000000000000422e-02
1.034999999999999948e-01
6.224999999999999978e-02
6.224999999999999978e-02
7.774999999999999967e-02
7.249999999999999500e-02
7.774999999999999967e-02
7.249999999999999500e-02
5.700000000000000205e-02
9.324999999999999956e-02
8.799999999999999489e-02
7.774999999999999967e-02
7.774999999999999967e-02
7.249999999999999500e-02
9.850000000000000422e-02
9.850000000000000422e-02
7.249999999999999500e-02
6.725000000000000422e-02
6.725000000000000422e-02
6.224999999999999978e-02
4.150000000000000216e-02
6.224999999999999978e-02
6.224999999999999978e-02
4.150000000000000216e-02
6.224999999999999978e-02
6.224999999999999978e-02
5.174999999999999739e-02
1.087499999999999994e-01
5.174999999999999739e-02
5.700000000000000205e-02
5.174999999999999739e-02
6.224999999999999978e-02
6.224999999999999978e-02
7.249999999999999500e-02
5.700000000000000205e-02
6.224999999999999978e-02
7.249999999999999500e-02
6.224999999999999978e-02
7.249999999999999500e-02
6.725000000000000422e-02
1.087499999999999994e-01
8.275000000000000411e-02
5.174999999999999739e-02
6.224999999999999978e-02
5.700000000000000205e-02
6.224999999999999978e-02
1.140000000000000041e-01
7.249999999999999500e-02
7.249999999999999500e-02
6.725000000000000422e-02
6.224999999999999978e-02
7.249999999999999500e-02
6.725000000000000422e-02
6.725000000000000422e-02
6.224999999999999978e-02
5.700000000000000205e-02
5.174999999999999739e-02
6.224999999999999978e-02
6.725000000000000422e-02
7.249999999999999500e-02
7.249999999999999500e-02
5.174999999999999739e-02
7.774999999999999967e-02
4.649999999999999967e-02
7.249999999999999500e-02
7.774999999999999967e-02
5.700000000000000205e-02
7.249999999999999500e-02
4.150000000000000216e-02
5.700000000000000205e-02
6.725000000000000422e-02
6.725000000000000422e-02
6.224999999999999978e-02
6.725000000000000422e-02
5.174999999999999739e-02
5.700000000000000205e-02
5.700000000000000205e-02
5.174999999999999739e-02
8.799999999999999489e-02
1.034999999999999948e-01
6.224999999999999978e-02
4.649999999999999967e-02
7.249999999999999500e-02
5.174999999999999739e-02
6.224999999999999978e-02
3.624999999999999750e-02
5.700000000000000205e-02
6.224999999999999978e-02
6.725000000000000422e-02
7.249999999999999500e-02
6.224999999999999978e-02
7.774999999999999967e-02
5.174999999999999739e-02
3.624999999999999750e-02
5.700000000000000205e-02
4.649999999999999967e-02
3.624999999999999750e-02
5.174999999999999739e-02
6.725000000000000422e-02
4.150000000000000216e-02
4.150000000000000216e-02
3.624999999999999750e-02
9.850000000000000422e-02
5.490000000000000435e-01
8.275000000000000411e-02
7.249999999999999500e-02
1.087499999999999994e-01
6.224999999999999978e-02
7.249999999999999500e-02
6.224999999999999978e-02
4.150000000000000216e-02
4.150000000000000216e-02
6.224999999999999978e-02
6.725000000000000422e-02
8.275000000000000411e-02
5.700000000000000205e-02
6.725000000000000422e-02
5.700000000000000205e-02
1.087499999999999994e-01
1.347500000000000087e-01
5.700000000000000205e-02
7.249999999999999500e-02
6.725000000000000422e-02
5.700000000000000205e-02
7.249999999999999500e-02
6.224999999999999978e-02
9.324999999999999956e-02
6.224999999999999978e-02
1.087499999999999994e-01
8.275000000000000411e-02
6.224999999999999978e-02
7.249999999999999500e-02
5.700000000000000205e-02
9.324999999999999956e-02
5.700000000000000205e-02
1.087499999999999994e-01
9.324999999999999956e-02
9.850000000000000422e-02
1.034999999999999948e-01
4.649999999999999967e-02
1.034999999999999948e-01
1.034999999999999948e-01
7.249999999999999500e-02
5.174999999999999739e-02
5.174999999999999739e-02
1.554999999999999993e-01
8.799999999999999489e-02
4.649999999999999967e-02
8.799999999999999489e-02
6.725000000000000422e-02
5.174999999999999739e-02
7.249999999999999500e-02
8.275000000000000411e-02
9.324999999999999956e-02
2.642499999999999849e-01
1.087499999999999994e-01
5.700000000000000205e-02
6.725000000000000422e-02
9.324999999999999956e-02
8.275000000000000411e-02
6.725000000000000422e-02
7.774999999999999967e-02
9.850000000000000422e-02
6.224999999999999978e-02
5.700000000000000205e-02
8.275000000000000411e-02
5.700000000000000205e-02
7.249999999999999500e-02
4.150000000000000216e-02
5.174999999999999739e-02
5.700000000000000205e-02
6.725000000000000422e-02
7.249999999999999500e-02
4.649999999999999967e-02
6.224999999999999978e-02
5.700000000000000205e-02
5.700000000000000205e-02
7.774999999999999967e-02
9.324999999999999956e-02
6.224999999999999978e-02
5.700000000000000205e-02
5.700000000000000205e-02
6.224999999999999978e-02
7.774999999999999967e-02
6.224999999999999978e-02
9.324999999999999956e-02
6.224999999999999978e-02
4.649999999999999967e-02
7.249999999999999500e-02
7.249999999999999500e-02
1.034999999999999948e-01
8.799999999999999489e-02
7.249999999999999500e-02
7.249999999999999500e-02
7.249999999999999500e-02
7.249999999999999500e-02
5.174999999999999739e-02
1.034999999999999948e-01
8.275000000000000411e-02
5.700000000000000205e-02
6.224999999999999978e-02
7.249999999999999500e-02
4.150000000000000216e-02
6.224999999999999978e-02
7.774999999999999967e-02
6.224999999999999978e-02
5.700000000000000205e-02
5.700000000000000205e-02
4.649999999999999967e-02
6.224999999999999978e-02
5.700000000000000205e-02
8.275000000000000411e-02
7.774999999999999967e-02
8.275000000000000411e-02
6.224999999999999978e-02
4.150000000000000216e-02
4.150000000000000216e-02
5.700000000000000205e-02
1.347500000000000087e-01
6.725000000000000422e-02
5.700000000000000205e-02
7.774999999999999967e-02
6.224999999999999978e-02
6.224999999999999978e-02
6.224999999999999978e-02
5.174999999999999739e-02
9.850000000000000422e-02
8.799999999999999489e-02
5.700000000000000205e-02
6.224999999999999978e-02
5.174999999999999739e-02
7.249999999999999500e-02
5.700000000000000205e-02
8.275000000000000411e-02
7.774999999999999967e-02
7.249999999999999500e-02
4.150000000000000216e-02
5.174999999999999739e-02
6.224999999999999978e-02
5.700000000000000205e-02
9.850000000000000422e-02
3.160000000000000031e-01
8.275000000000000411e-02
9.850000000000000422e-02
8.799999999999999489e-02
5.174999999999999739e-02
5.174999999999999739e-02
7.249999999999999500e-02
7.249999999999999500e-02
6.224999999999999978e-02
5.700000000000000205e-02
5.174999999999999739e-02
6.725000000000000422e-02
5.700000000000000205e-02
5.700000000000000205e-02
1.192499999999999949e-01
8.799999999999999489e-02
1.502499999999999947e-01
5.700000000000000205e-02
5.174999999999999739e-02
8.799999999999999489e-02
1.554999999999999993e-01
7.249999999999999500e-02
1.295000000000000040e-01
5.700000000000000205e-02
9.850000000000000422e-02
4.150000000000000216e-02
7.774999999999999967e-02
8.799999999999999489e-02
5.700000000000000205e-02
4.649999999999999967e-02
5.700000000000000205e-02
5.174999999999999739e-02
4.649999999999999967e-02
7.249999999999999500e-02
5.700000000000000205e-02
5.174999999999999739e-02
5.174999999999999739e-02
6.224999999999999978e-02
6.224999999999999978e-02
7.249999999999999500e-02
5.174999999999999739e-02
8.275000000000000411e-02
5.700000000000000205e-02
5.174999999999999739e-02
5.174999999999999739e-02
5.174999999999999739e-02
5.700000000000000205e-02
5.174999999999999739e-02
4.150000000000000216e-02
5.700000000000000205e-02
3.624999999999999750e-02
1.140000000000000041e-01
9.324999999999999956e-02
4.150000000000000216e-02
6.725000000000000422e-02
5.174999999999999739e-02
4.150000000000000216e-02
5.700000000000000205e-02
5.174999999999999739e-02
7.774999999999999967e-02
7.249999999999999500e-02
4.150000000000000216e-02
5.700000000000000205e-02
7.249999999999999500e-02
9.850000000000000422e-02
7.249999999999999500e-02
5.700000000000000205e-02
4.150000000000000216e-02
4.150000000000000216e-02
7.774999999999999967e-02
4.649999999999999967e-02
5.700000000000000205e-02
7.774999999999999967e-02
5.700000000000000205e-02
8.275000000000000411e-02
5.174999999999999739e-02
7.249999999999999500e-02
9.850000000000000422e-02
5.174999999999999739e-02
8.799999999999999489e-02
7.249999999999999500e-02
5.700000000000000205e-02
4.150000000000000216e-02
6.224999999999999978e-02
5.174999999999999739e-02
4.150000000000000216e-02
5.174999999999999739e-02
5.174999999999999739e-02
5.700000000000000205e-02
6.725000000000000422e-02
8.275000000000000411e-02
6.224999999999999978e-02
5.700000000000000205e-02
5.700000000000000205e-02
6.224999999999999978e-02
5.174999999999999739e-02
6.725000000000000422e-02
6.224999999999999978e-02
4.649999999999999967e-02
5.174999999999999739e-02
4.649999999999999967e-02
6.725000000000000422e-02
8.275000000000000411e-02
8.799999999999999489e-02
8.799999999999999489e-02
8.799999999999999489e-02
6.224999999999999978e-02
5.700000000000000205e-02
6.725000000000000422e-02
5.174999999999999739e-02
4.649999999999999967e-02
6.725000000000000422e-02
6.224999999999999978e-02
8.799999999999999489e-02
5.700000000000000205e-02
6.224999999999999978e-02
5.700000000000000205e-02
6.725000000000000422e-02
6.725000000000000422e-02
5.700000000000000205e-02
6.725000000000000422e-02
7.774999999999999967e-02
1.449999999999999900e-01
1.295000000000000040e-01
4.150000000000000216e-02
7.249999999999999500e-02
7.249999999999999500e-02
1.242499999999999993e-01
8.799999999999999489e-02
8.799999999999999489e-02
7.774999999999999967e-02
7.249999999999999500e-02
1.034999999999999948e-01
9.850000000000000422e-02
4.649999999999999967e-02
5.700000000000000205e-02
5.700000000000000205e-02
5.700000000000000205e-02
6.224999999999999978e-02
5.700000000000000205e-02
7.249999999999999500e-02
4.150000000000000216e-02
8.275000000000000411e-02
8.799999999999999489e-02
3.624999999999999750e-02
6.224999999999999978e-02
5.174999999999999739e-02
5.174999999999999739e-02
6.224999999999999978e-02
5.700000000000000205e-02
5.700000000000000205e-02
7.249999999999999500e-02
5.700000000000000205e-02
6.725000000000000422e-02
5.174999999999999739e-02
9.324999999999999956e-02
7.249999999999999500e-02
1.192499999999999949e-01
8.275000000000000411e-02
6.224999999999999978e-02
6.224999999999999978e-02
7.249999999999999500e-02
5.174999999999999739e-02
7.249999999999999500e-02
6.224999999999999978e-02
6.725000000000000422e-02
6.224999999999999978e-02
7.774999999999999967e-02
5.700000000000000205e-02
4.649999999999999967e-02
5.700000000000000205e-02
4.649999999999999967e-02
8.275000000000000411e-02
4.649999999999999967e-02
6.725000000000000422e-02
6.224999999999999978e-02
7.249999999999999500e-02
5.700000000000000205e-02
5.174999999999999739e-02
8.275000000000000411e-02
8.799999999999999489e-02
6.725000000000000422e-02
5.700000000000000205e-02
5.174999999999999739e-02
6.224999999999999978e-02
6.224999999999999978e-02
5.174999999999999739e-02
4.150000000000000216e-02
5.174999999999999739e-02
4.649999999999999967e-02
5.174999999999999739e-02
6.224999999999999978e-02
6.725000000000000422e-02
5.174999999999999739e-02
5.700000000000000205e-02
4.150000000000000216e-02
6.224999999999999978e-02
6.725000000000000422e-02
7.774999999999999967e-02
9.850000000000000422e-02
9.324999999999999956e-02
4.649999999999999967e-02
5.700000000000000205e-02
7.249999999999999500e-02
5.174999999999999739e-02
1.034999999999999948e-01
5.700000000000000205e-02
5.700000000000000205e-02
7.774999999999999967e-02
5.174999999999999739e-02
4.649999999999999967e-02
6.224999999999999978e-02
7.249999999999999500e-02
6.224999999999999978e-02
5.700000000000000205e-02
4.649999999999999967e-02
6.224999999999999978e-02
5.174999999999999739e-02
5.174999999999999739e-02
1.242499999999999993e-01
5.700000000000000205e-02
7.249999999999999500e-02
5.700000000000000205e-02
7.774999999999999967e-02
6.224999999999999978e-02
4.649999999999999967e-02
6.224999999999999978e-02
4.150000000000000216e-02
3.624999999999999750e-02
5.174999999999999739e-02
5.700000000000000205e-02
6.224999999999999978e-02
6.224999999999999978e-02
8.275000000000000411e-02
6.224999999999999978e-02
8.799999999999999489e-02
5.700000000000000205e-02
7.249999999999999500e-02
5.700000000000000205e-02
7.774999999999999967e-02
6.224999999999999978e-02
6.224999999999999978e-02
7.249999999999999500e-02
6.224999999999999978e-02
4.150000000000000216e-02
4.649999999999999967e-02
8.275000000000000411e-02
1.242499999999999993e-01
4.649999999999999967e-02
5.700000000000000205e-02
8.275000000000000411e-02
5.174999999999999739e-02
6.224999999999999978e-02
6.224999999999999978e-02
5.700000000000000205e-02
6.224999999999999978e-02
5.174999999999999739e-02
4.649999999999999967e-02
6.224999999999999978e-02
6.725000000000000422e-02
8.275000000000000411e-02
7.249999999999999500e-02
7.249999999999999500e-02
7.774999999999999967e-02
7.249999999999999500e-02
5.700000000000000205e-02
6.224999999999999978e-02
5.174999999999999739e-02
4.150000000000000216e-02
4.649999999999999967e-02
5.700000000000000205e-02
6.725000000000000422e-02
6.725000000000000422e-02
5.174999999999999739e-02
8.799999999999999489e-02
7.249999999999999500e-02
5.174999999999999739e-02
6.725000000000000422e-02
6.224999999999999978e-02
5.700000000000000205e-02
5.174999999999999739e-02
6.725000000000000422e-02
6.725000000000000422e-02
5.174999999999999739e-02
6.224999999999999978e-02
5.174999999999999739e-02
6.725000000000000422e-02
1.034999999999999948e-01
5.174999999999999739e-02
4.649999999999999967e-02
5.174999999999999739e-02
6.725000000000000422e-02
5.700000000000000205e-02
6.725000000000000422e-02
4.649999999999999967e-02
3.624999999999999750e-02
5.700000000000000205e-02
4.649999999999999967e-02
7.249999999999999500e-02
7.774999999999999967e-02
9.850000000000000422e-02
4.649999999999999967e-02
5.174999999999999739e-02
5.700000000000000205e-02
4.649999999999999967e-02
6.725000000000000422e-02
5.174999999999999739e-02
5.700000000000000205e-02
5.174999999999999739e-02
4.150000000000000216e-02
5.700000000000000205e-02
6.224999999999999978e-02
7.774999999999999967e-02
3.624999999999999750e-02
4.150000000000000216e-02
5.700000000000000205e-02
3.624999999999999750e-02
6.224999999999999978e-02
5.174999999999999739e-02
4.150000000000000216e-02
6.224999999999999978e-02
5.700000000000000205e-02
6.725000000000000422e-02
6.725000000000000422e-02
5.700000000000000205e-02
7.774999999999999967e-02
5.174999999999999739e-02
5.174999999999999739e-02
6.224999999999999978e-02
5.700000000000000205e-02
5.174999999999999739e-02
7.249999999999999500e-02
6.224999999999999978e-02
5.174999999999999739e-02
7.249999999999999500e-02
4.150000000000000216e-02
6.725000000000000422e-02
5.700000000000000205e-02
1.242499999999999993e-01
6.725000000000000422e-02
5.174999999999999739e-02
5.174999999999999739e-02
5.700000000000000205e-02
6.224999999999999978e-02
5.700000000000000205e-02
8.275000000000000411e-02
4.649999999999999967e-02
4.150000000000000216e-02
4.150000000000000216e-02
6.224999999999999978e-02
5.174999999999999739e-02
6.725000000000000422e-02
6.725000000000000422e-02
6.725000000000000422e-02
5.174999999999999739e-02
5.174999999999999739e-02
4.649999999999999967e-02
6.725000000000000422e-02
5.700000000000000205e-02
4.649999999999999967e-02
6.224999999999999978e-02
5.174999999999999739e-02
6.725000000000000422e-02
6.224999999999999978e-02
5.174999999999999739e-02
8.799999999999999489e-02
4.649999999999999967e-02
6.224999999999999978e-02
5.174999999999999739e-02
5.174999999999999739e-02
7.249999999999999500e-02
7.774999999999999967e-02
6.224999999999999978e-02
7.774999999999999967e-02
4.649999999999999967e-02
5.174999999999999739e-02
4.150000000000000216e-02
5.700000000000000205e-02
5.700000000000000205e-02
1.087499999999999994e-01
6.224999999999999978e-02
5.174999999999999739e-02
5.700000000000000205e-02
5.700000000000000205e-02
7.774999999999999967e-02
6.725000000000000422e-02
5.700000000000000205e-02
4.150000000000000216e-02
6.725000000000000422e-02
6.725000000000000422e-02
4.150000000000000216e-02
6.725000000000000422e-02
7.774999999999999967e-02
1.087499999999999994e-01
5.700000000000000205e-02
4.649999999999999967e-02
4.649999999999999967e-02
5.174999999999999739e-02
8.275000000000000411e-02
5.700000000000000205e-02
4.150000000000000216e-02
5.174999999999999739e-02
5.174999999999999739e-02
6.725000000000000422e-02
6.725000000000000422e-02
5.700000000000000205e-02
8.799999999999999489e-02
8.799999999999999489e-02
5.174999999999999739e-02
5.174999999999999739e-02
5.700000000000000205e-02
9.324999999999999956e-02
6.725000000000000422e-02
5.174999999999999739e-02
5.700000000000000205e-02
5.700000000000000205e-02
3.624999999999999750e-02
5.700000000000000205e-02
6.725000000000000422e-02
8.275000000000000411e-02
8.799999999999999489e-02
6.224999999999999978e-02
4.649999999999999967e-02
7.249999999999999500e-02
5.700000000000000205e-02
5.174999999999999739e-02
6.224999999999999978e-02
6.725000000000000422e-02
5.700000000000000205e-02
4.649999999999999967e-02
6.224999999999999978e-02
5.174999999999999739e-02
8.275000000000000411e-02
6.725000000000000422e-02
6.224999999999999978e-02
7.249999999999999500e-02
8.275000000000000411e-02
7.249999999999999500e-02
4.649999999999999967e-02
5.174999999999999739e-02
5.174999999999999739e-02
5.174999999999999739e-02
7.249999999999999500e-02
7.774999999999999967e-02
3.099999999999999978e-02
4.649999999999999967e-02
1.034999999999999948e-01
8.275000000000000411e-02
7.249999999999999500e-02
7.249999999999999500e-02
6.224999999999999978e-02
6.725000000000000422e-02
7.774999999999999967e-02
5.700000000000000205e-02
4.649999999999999967e-02
8.799999999999999489e-02
5.700000000000000205e-02
7.774999999999999967e-02
7.774999999999999967e-02
1.087499999999999994e-01
4.649999999999999967e-02
7.249999999999999500e-02
1.087499999999999994e-01
8.275000000000000411e-02
7.774999999999999967e-02
6.224999999999999978e-02
8.799999999999999489e-02
7.774999999999999967e-02
6.725000000000000422e-02
5.174999999999999739e-02
5.174999999999999739e-02
8.799999999999999489e-02
5.700000000000000205e-02
5.174999999999999739e-02
7.249999999999999500e-02
5.174999999999999739e-02
5.700000000000000205e-02
8.275000000000000411e-02
5.174999999999999739e-02
6.725000000000000422e-02
7.774999999999999967e-02
4.150000000000000216e-02
5.700000000000000205e-02
6.224999999999999978e-02
1.087499999999999994e-01
1.087499999999999994e-01
8.275000000000000411e-02
1.397500000000000131e-01
6.224999999999999978e-02
4.150000000000000216e-02
6.725000000000000422e-02
5.174999999999999739e-02
6.224999999999999978e-02
6.725000000000000422e-02
5.700000000000000205e-02
9.850000000000000422e-02
6.725000000000000422e-02
5.700000000000000205e-02
7.249999999999999500e-02
9.850000000000000422e-02
7.774999999999999967e-02
6.224999999999999978e-02
6.224999999999999978e-02
9.324999999999999956e-02
6.224999999999999978e-02
8.275000000000000411e-02
7.774999999999999967e-02
5.700000000000000205e-02
8.799999999999999489e-02
1.140000000000000041e-01
6.224999999999999978e-02
9.324999999999999956e-02
1.034999999999999948e-01
9.850000000000000422e-02
7.774999999999999967e-02
7.249999999999999500e-02
1.242499999999999993e-01
8.799999999999999489e-02
6.224999999999999978e-02
8.275000000000000411e-02
6.224999999999999978e-02
4.150000000000000216e-02
9.324999999999999956e-02
7.249999999999999500e-02
7.249999999999999500e-02
1.140000000000000041e-01
9.324999999999999956e-02
9.850000000000000422e-02
6.725000000000000422e-02
8.275000000000000411e-02
7.249999999999999500e-02
1.087499999999999994e-01
1.397500000000000131e-01
8.799999999999999489e-02
9.324999999999999956e-02
5.700000000000000205e-02
3.624999999999999750e-02
5.700000000000000205e-02
6.725000000000000422e-02
5.700000000000000205e-02
5.174999999999999739e-02
6.224999999999999978e-02
6.725000000000000422e-02
7.774999999999999967e-02
8.275000000000000411e-02
6.224999999999999978e-02
5.174999999999999739e-02
6.224999999999999978e-02
6.725000000000000422e-02
4.649999999999999967e-02
6.725000000000000422e-02
5.174999999999999739e-02
5.700000000000000205e-02
7.249999999999999500e-02
1.034999999999999948e-01
5.174999999999999739e-02
4.649999999999999967e-02
6.725000000000000422e-02
5.174999999999999739e-02
5.174999999999999739e-02
6.224999999999999978e-02
6.725000000000000422e-02
6.725000000000000422e-02
7.249999999999999500e-02
7.249999999999999500e-02
6.725000000000000422e-02
8.275000000000000411e-02
8.275000000000000411e-02
8.275000000000000411e-02
8.275000000000000411e-02
6.725000000000000422e-02
6.224999999999999978e-02
6.224999999999999978e-02
7.774999999999999967e-02
5.174999999999999739e-02
6.725000000000000422e-02
5.174999999999999739e-02
7.774999999999999967e-02
4.649999999999999967e-02
5.700000000000000205e-02
6.725000000000000422e-02
9.324999999999999956e-02
8.275000000000000411e-02
7.249999999999999500e-02
7.774999999999999967e-02
7.774999999999999967e-02
6.725000000000000422e-02
6.224999999999999978e-02
4.649999999999999967e-02
6.224999999999999978e-02
6.224999999999999978e-02
7.249999999999999500e-02
5.174999999999999739e-02
8.275000000000000411e-02
6.224999999999999978e-02
6.725000000000000422e-02
4.649999999999999967e-02
5.174999999999999739e-02
4.150000000000000216e-02
3.624999999999999750e-02
5.700000000000000205e-02
5.174999999999999739e-02
6.224999999999999978e-02
5.700000000000000205e-02
5.174999999999999739e-02
6.224999999999999978e-02
6.224999999999999978e-02
6.725000000000000422e-02
4.649999999999999967e-02
9.324999999999999956e-02
1.242499999999999993e-01
1.087499999999999994e-01
4.649999999999999967e-02
6.725000000000000422e-02
7.774999999999999967e-02
5.700000000000000205e-02
5.174999999999999739e-02
3.624999999999999750e-02
7.774999999999999967e-02
7.249999999999999500e-02
6.725000000000000422e-02
7.774999999999999967e-02
6.224999999999999978e-02
5.174999999999999739e-02
6.224999999999999978e-02
6.725000000000000422e-02
5.700000000000000205e-02
7.249999999999999500e-02
9.850000000000000422e-02
1.242499999999999993e-01
7.774999999999999967e-02
1.087499999999999994e-01
9.850000000000000422e-02
1.087499999999999994e-01
8.799999999999999489e-02
4.150000000000000216e-02
5.174999999999999739e-02
6.224999999999999978e-02
6.725000000000000422e-02
5.700000000000000205e-02
6.224999999999999978e-02
5.174999999999999739e-02
4.150000000000000216e-02
5.700000000000000205e-02
8.799999999999999489e-02
5.700000000000000205e-02
6.725000000000000422e-02
6.224999999999999978e-02
6.224999999999999978e-02
5.700000000000000205e-02
6.725000000000000422e-02
6.725000000000000422e-02
4.649999999999999967e-02
3.624999999999999750e-02
5.174999999999999739e-02
6.224999999999999978e-02
6.725000000000000422e-02
8.275000000000000411e-02
5.700000000000000205e-02
5.700000000000000205e-02
5.174999999999999739e-02
5.700000000000000205e-02
4.649999999999999967e-02
4.649999999999999967e-02
5.700000000000000205e-02
5.700000000000000205e-02
6.725000000000000422e-02
7.249999999999999500e-02
4.150000000000000216e-02
6.725000000000000422e-02
1.034999999999999948e-01
8.275000000000000411e-02
8.275000000000000411e-02
7.774999999999999967e-02
6.224999999999999978e-02
8.799999999999999489e-02
8.275000000000000411e-02
6.725000000000000422e-02
1.140000000000000041e-01
8.275000000000000411e-02
5.700000000000000205e-02
6.725000000000000422e-02
5.174999999999999739e-02
6.224999999999999978e-02
9.324999999999999956e-02
7.249999999999999500e-02
5.174999999999999739e-02
6.725000000000000422e-02
5.174999999999999739e-02
5.700000000000000205e-02
5.174999999999999739e-02
5.174999999999999739e-02
5.174999999999999739e-02
4.150000000000000216e-02
4.649999999999999967e-02
5.700000000000000205e-02
6.725000000000000422e-02
5.174999999999999739e-02
7.249999999999999500e-02
7.249999999999999500e-02
7.774999999999999967e-02
5.174999999999999739e-02
5.700000000000000205e-02
6.725000000000000422e-02
5.700000000000000205e-02
7.774999999999999967e-02
7.774999999999999967e-02
5.174999999999999739e-02
5.174999999999999739e-02
7.249999999999999500e-02
6.224999999999999978e-02
7.774999999999999967e-02
5.174999999999999739e-02
5.174999999999999739e-02
4.649999999999999967e-02
3.624999999999999750e-02
3.624999999999999750e-02
4.649999999999999967e-02
4.150000000000000216e-02
4.649999999999999967e-02
4.150000000000000216e-02
4.150000000000000216e-02
5.174999999999999739e-02
4.150000000000000216e-02
4.649999999999999967e-02
6.224999999999999978e-02
5.174999999999999739e-02
4.649999999999999967e-02
6.224999999999999978e-02
5.700000000000000205e-02
4.150000000000000216e-02
7.249999999999999500e-02
7.774999999999999967e-02
7.249999999999999500e-02
6.224999999999999978e-02
5.700000000000000205e-02
5.174999999999999739e-02
5.174999999999999739e-02
8.799999999999999489e-02
6.725000000000000422e-02
6.725000000000000422e-02
5.174999999999999739e-02
4.649999999999999967e-02
4.150000000000000216e-02
6.224999999999999978e-02
4.150000000000000216e-02
5.700000000000000205e-02
5.700000000000000205e-02
5.174999999999999739e-02
5.174999999999999739e-02
3.624999999999999750e-02
9.324999999999999956e-02
6.224999999999999978e-02
5.174999999999999739e-02
4.150000000000000216e-02
4.649999999999999967e-02
4.649999999999999967e-02
6.725000000000000422e-02
3.099999999999999978e-02
5.174999999999999739e-02
6.725000000000000422e-02
4.649999999999999967e-02
4.150000000000000216e-02
1.192499999999999949e-01
1.657500000000000084e-01
6.725000000000000422e-02
6.725000000000000422e-02
6.725000000000000422e-02
5.174999999999999739e-02
5.174999999999999739e-02
6.224999999999999978e-02
6.725000000000000422e-02
6.224999999999999978e-02
6.224999999999999978e-02
4.150000000000000216e-02
9.324999999999999956e-02
5.700000000000000205e-02
7.249999999999999500e-02
4.150000000000000216e-02
5.700000000000000205e-02
5.700000000000000205e-02
5.174999999999999739e-02
3.099999999999999978e-02
6.224999999999999978e-02
6.224999999999999978e-02
3.624999999999999750e-02
7.249999999999999500e-02
4.150000000000000216e-02
6.224999999999999978e-02
5.174999999999999739e-02
5.700000000000000205e-02
4.150000000000000216e-02
6.725000000000000422e-02
5.700000000000000205e-02
4.150000000000000216e-02
5.700000000000000205e-02
4.649999999999999967e-02
4.150000000000000216e-02
4.649999999999999967e-02
5.700000000000000205e-02
3.624999999999999750e-02
5.174999999999999739e-02
9.324999999999999956e-02
1.605000000000000038e-01
4.649999999999999967e-02
5.700000000000000205e-02
6.224999999999999978e-02
6.224999999999999978e-02
5.700000000000000205e-02
5.700000000000000205e-02
5.174999999999999739e-02
6.725000000000000422e-02
5.174999999999999739e-02
5.174999999999999739e-02
4.649999999999999967e-02
7.774999999999999967e-02
6.224999999999999978e-02
5.700000000000000205e-02
6.224999999999999978e-02
5.700000000000000205e-02
8.275000000000000411e-02
6.224999999999999978e-02
6.725000000000000422e-02
6.224999999999999978e-02
4.649999999999999967e-02
5.174999999999999739e-02
5.174999999999999739e-02
6.224999999999999978e-02
5.700000000000000205e-02
1.034999999999999948e-01
1.087499999999999994e-01
7.249999999999999500e-02
5.174999999999999739e-02
4.150000000000000216e-02
5.700000000000000205e-02
5.174999999999999739e-02
3.624999999999999750e-02
6.224999999999999978e-02
5.174999999999999739e-02
5.700000000000000205e-02
7.249999999999999500e-02
6.224999999999999978e-02
9.850000000000000422e-02
7.249999999999999500e-02
1.034999999999999948e-01
8.799999999999999489e-02
5.174999999999999739e-02
4.649999999999999967e-02
5.174999999999999739e-02
6.725000000000000422e-02
4.649999999999999967e-02
4.649999999999999967e-02
6.224999999999999978e-02
7.249999999999999500e-02
7.774999999999999967e-02
5.700000000000000205e-02
6.224999999999999978e-02
5.174999999999999739e-02
6.224999999999999978e-02
7.774999999999999967e-02
7.249999999999999500e-02
8.275000000000000411e-02
7.249999999999999500e-02
8.275000000000000411e-02
7.774999999999999967e-02
8.275000000000000411e-02
5.700000000000000205e-02
7.774999999999999967e-02
8.799999999999999489e-02
5.700000000000000205e-02
8.275000000000000411e-02
7.774999999999999967e-02
7.774999999999999967e-02
8.275000000000000411e-02
5.700000000000000205e-02
6.725000000000000422e-02
5.174999999999999739e-02
6.725000000000000422e-02
5.700000000000000205e-02
6.725000000000000422e-02
6.224999999999999978e-02
6.224999999999999978e-02
7.249999999999999500e-02
6.224999999999999978e-02
7.249999999999999500e-02
9.324999999999999956e-02
1.140000000000000041e-01
6.725000000000000422e-02
4.649999999999999967e-02
5.700000000000000205e-02
6.725000000000000422e-02
5.700000000000000205e-02
6.224999999999999978e-02
5.174999999999999739e-02
7.249999999999999500e-02
7.249999999999999500e-02
7.249999999999999500e-02
6.725000000000000422e-02
6.224999999999999978e-02
8.799999999999999489e-02
7.249999999999999500e-02
5.700000000000000205e-02
6.725000000000000422e-02
6.224999999999999978e-02
7.249999999999999500e-02
7.774999999999999967e-02
8.799999999999999489e-02
5.700000000000000205e-02
5.174999999999999739e-02
7.249999999999999500e-02
8.275000000000000411e-02
8.275000000000000411e-02
9.850000000000000422e-02
6.224999999999999978e-02
6.725000000000000422e-02
9.850000000000000422e-02
7.614999999999999547e-01
1.087499999999999994e-01
6.224999999999999978e-02
8.275000000000000411e-02
7.249999999999999500e-02
6.725000000000000422e-02
4.150000000000000216e-02
8.799999999999999489e-02
7.249999999999999500e-02
8.799999999999999489e-02
5.700000000000000205e-02
7.774999999999999967e-02
5.174999999999999739e-02
4.649999999999999967e-02
7.774999999999999967e-02
6.725000000000000422e-02
7.249999999999999500e-02
6.725000000000000422e-02
9.324999999999999956e-02
7.774999999999999967e-02
8.275000000000000411e-02
9.324999999999999956e-02
1.397500000000000131e-01
7.249999999999999500e-02
6.725000000000000422e-02
7.774999999999999967e-02
1.295000000000000040e-01
1.192499999999999949e-01
1.295000000000000040e-01
7.774999999999999967e-02
1.087499999999999994e-01
9.850000000000000422e-02
1.242499999999999993e-01
1.192499999999999949e-01
9.324999999999999956e-02
1.347500000000000087e-01
1.295000000000000040e-01
1.087499999999999994e-01
1.087499999999999994e-01
1.034999999999999948e-01
9.850000000000000422e-02
1.449999999999999900e-01
1.087499999999999994e-01
8.275000000000000411e-02
1.087499999999999994e-01
6.224999999999999978e-02
7.774999999999999967e-02
9.324999999999999956e-02
7.774999999999999967e-02
6.725000000000000422e-02
7.249999999999999500e-02
5.700000000000000205e-02
8.275000000000000411e-02
6.224999999999999978e-02
7.774999999999999967e-02
7.774999999999999967e-02
7.249999999999999500e-02
6.224999999999999978e-02
6.725000000000000422e-02
1.140000000000000041e-01
7.249999999999999500e-02
7.774999999999999967e-02
5.700000000000000205e-02
9.324999999999999956e-02
6.224999999999999978e-02
1.242499999999999993e-01
5.700000000000000205e-02
7.249999999999999500e-02
7.249999999999999500e-02
7.774999999999999967e-02
9.850000000000000422e-02
7.249999999999999500e-02
1.087499999999999994e-01
8.799999999999999489e-02
8.275000000000000411e-02
9.850000000000000422e-02
6.725000000000000422e-02
1.034999999999999948e-01
8.275000000000000411e-02
3.624999999999999889e-01
1.034999999999999948e-01
5.700000000000000205e-02
1.295000000000000040e-01
7.774999999999999967e-02
6.725000000000000422e-02
6.725000000000000422e-02
4.649999999999999967e-02
6.224999999999999978e-02
6.224999999999999978e-02
6.224999999999999978e-02
7.249999999999999500e-02
7.249999999999999500e-02
5.174999999999999739e-02
3.624999999999999750e-02
6.725000000000000422e-02
6.725000000000000422e-02
7.249999999999999500e-02
4.150000000000000216e-02
5.174999999999999739e-02
6.224999999999999978e-02
5.174999999999999739e-02
1.087499999999999994e-01
9.850000000000000422e-02
6.224999999999999978e-02
5.700000000000000205e-02
8.275000000000000411e-02
7.249999999999999500e-02
5.174999999999999739e-02
7.774999999999999967e-02
4.649999999999999967e-02
6.224999999999999978e-02
6.224999999999999978e-02
5.174999999999999739e-02
3.624999999999999750e-02
5.174999999999999739e-02
6.725000000000000422e-02
4.649999999999999967e-02
5.174999999999999739e-02
6.224999999999999978e-02
4.649999999999999967e-02
4.649999999999999967e-02
4.150000000000000216e-02
5.700000000000000205e-02
6.224999999999999978e-02
5.700000000000000205e-02
4.150000000000000216e-02
4.649999999999999967e-02
6.725000000000000422e-02
5.174999999999999739e-02
8.275000000000000411e-02
5.174999999999999739e-02
5.700000000000000205e-02
4.150000000000000216e-02
5.174999999999999739e-02
8.799999999999999489e-02
8.275000000000000411e-02
6.224999999999999978e-02
6.224999999999999978e-02
9.850000000000000422e-02
7.249999999999999500e-02
5.700000000000000205e-02
9.324999999999999956e-02
8.275000000000000411e-02
4.150000000000000216e-02
5.700000000000000205e-02
6.725000000000000422e-02
6.224999999999999978e-02
6.725000000000000422e-02
6.224999999999999978e-02
5.174999999999999739e-02
4.649999999999999967e-02
7.774999999999999967e-02
7.249999999999999500e-02
2.280000000000000082e-01
2.642499999999999849e-01
2.330000000000000127e-01
3.780000000000000027e-01
2.797499999999999987e-01
3.885000000000000120e-01
2.280000000000000082e-01
8.799999999999999489e-02
1.554999999999999993e-01
2.484999999999999987e-01
3.315000000000000169e-01
3.262499999999999845e-01
2.899999999999999800e-01
2.537499999999999756e-01
1.710000000000000131e-01
1.657500000000000084e-01
1.657500000000000084e-01
2.899999999999999800e-01
2.174999999999999989e-01
2.174999999999999989e-01
2.382499999999999896e-01
2.484999999999999987e-01
2.434999999999999942e-01
2.072499999999999898e-01
2.797499999999999987e-01
3.107500000000000262e-01
2.537499999999999756e-01
1.347500000000000087e-01
2.590000000000000080e-01
3.469999999999999751e-01
4.610000000000000209e-01
3.417499999999999982e-01
4.919999999999999929e-01
3.054999999999999938e-01
4.505000000000000115e-01
1.864999999999999991e-01
3.262499999999999845e-01
4.247500000000000164e-01
4.349999999999999978e-01
5.074999999999999512e-01
1.605000000000000038e-01
2.227500000000000036e-01
2.849999999999999756e-01
2.072499999999999898e-01
3.107500000000000262e-01
2.642499999999999849e-01
2.537499999999999756e-01
1.554999999999999993e-01
1.864999999999999991e-01
1.812499999999999944e-01
1.087499999999999994e-01
1.812499999999999944e-01
7.774999999999999967e-02
1.449999999999999900e-01
1.710000000000000131e-01
1.034999999999999948e-01
1.192499999999999949e-01
1.657500000000000084e-01
1.347500000000000087e-01
1.397500000000000131e-01
8.799999999999999489e-02
1.242499999999999993e-01
5.700000000000000205e-02
1.034999999999999948e-01
1.242499999999999993e-01
7.249999999999999500e-02
1.812499999999999944e-01
6.224999999999999978e-02
1.657500000000000084e-01
6.725000000000000422e-02
5.700000000000000205e-02
1.397500000000000131e-01
1.554999999999999993e-01
1.812499999999999944e-01
1.192499999999999949e-01
1.449999999999999900e-01
1.034999999999999948e-01
1.759999999999999898e-01
4.649999999999999967e-02
1.397500000000000131e-01
1.397500000000000131e-01
8.275000000000000411e-02
1.397500000000000131e-01
1.605000000000000038e-01
8.275000000000000411e-02
2.280000000000000082e-01
9.850000000000000422e-02
2.020000000000000129e-01
6.725000000000000422e-02
6.725000000000000422e-02
1.397500000000000131e-01
6.224999999999999978e-02
6.725000000000000422e-02
1.295000000000000040e-01
1.087499999999999994e-01
9.850000000000000422e-02
5.174999999999999739e-02
5.700000000000000205e-02
6.224999999999999978e-02
6.224999999999999978e-02
7.249999999999999500e-02
6.224999999999999978e-02
9.324999999999999956e-02
8.799999999999999489e-02
7.249999999999999500e-02
4.649999999999999967e-02
4.649999999999999967e-02
5.700000000000000205e-02
6.224999999999999978e-02
6.725000000000000422e-02
6.725000000000000422e-02
9.324999999999999956e-02
1.605000000000000038e-01
5.174999999999999739e-02
5.174999999999999739e-02
6.725000000000000422e-02
1.295000000000000040e-01
9.850000000000000422e-02
5.700000000000000205e-02
7.774999999999999967e-02
8.275000000000000411e-02
9.324999999999999956e-02
6.224999999999999978e-02
5.174999999999999739e-02
4.649999999999999967e-02
5.700000000000000205e-02
9.324999999999999956e-02
6.725000000000000422e-02
8.275000000000000411e-02
5.700000000000000205e-02
4.649999999999999967e-02
4.649999999999999967e-02
4.649999999999999967e-02
5.700000000000000205e-02
5.700000000000000205e-02
6.725000000000000422e-02
6.725000000000000422e-02
9.324999999999999956e-02
2.434999999999999942e-01
1.554999999999999993e-01
1.140000000000000041e-01
1.502499999999999947e-01
1.917500000000000038e-01
1.295000000000000040e-01
7.249999999999999500e-02
7.249999999999999500e-02
5.174999999999999739e-02
5.174999999999999739e-02
6.725000000000000422e-02
7.249999999999999500e-02
7.774999999999999967e-02
6.725000000000000422e-02
8.275000000000000411e-02
1.192499999999999949e-01
7.774999999999999967e-02
6.725000000000000422e-02
6.725000000000000422e-02
1.554999999999999993e-01
2.122499999999999942e-01
6.224999999999999978e-02
5.700000000000000205e-02
7.774999999999999967e-02
7.249999999999999500e-02
7.249999999999999500e-02
9.324999999999999956e-02
9.324999999999999956e-02
6.725000000000000422e-02
5.174999999999999739e-02
7.774999999999999967e-02
2.745000000000000218e-01
1.449999999999999900e-01
5.700000000000000205e-02
5.700000000000000205e-02
5.700000000000000205e-02
4.150000000000000216e-02
5.700000000000000205e-02
6.725000000000000422e-02
7.774999999999999967e-02
8.799999999999999489e-02
4.649999999999999967e-02
6.725000000000000422e-02
1.087499999999999994e-01
6.725000000000000422e-02
8.275000000000000411e-02
7.249999999999999500e-02
5.700000000000000205e-02
5.700000000000000205e-02
6.725000000000000422e-02
5.700000000000000205e-02
4.649999999999999967e-02
6.725000000000000422e-02
4.150000000000000216e-02
5.174999999999999739e-02
4.150000000000000216e-02
4.649999999999999967e-02
5.700000000000000205e-02
5.174999999999999739e-02
3.099999999999999978e-02
1.710000000000000131e-01
5.700000000000000205e-02
1.034999999999999948e-01
6.224999999999999978e-02
6.224999999999999978e-02
4.649999999999999967e-02
5.174999999999999739e-02
1.087499999999999994e-01
6.224999999999999978e-02
7.249999999999999500e-02
1.140000000000000041e-01
9.850000000000000422e-02
2.692499999999999893e-01
7.774999999999999967e-02
9.324999999999999956e-02
8.275000000000000411e-02
8.799999999999999489e-02
1.502499999999999947e-01
1.034999999999999948e-01
6.224999999999999978e-02
5.174999999999999739e-02
6.224999999999999978e-02
1.502499999999999947e-01
6.224999999999999978e-02
8.799999999999999489e-02
6.725000000000000422e-02
6.224999999999999978e-02
1.034999999999999948e-01
5.700000000000000205e-02
9.850000000000000422e-02
8.799999999999999489e-02
1.087499999999999994e-01
4.649999999999999967e-02
6.224999999999999978e-02
6.224999999999999978e-02
4.150000000000000216e-02
6.224999999999999978e-02
5.174999999999999739e-02
6.224999999999999978e-02
4.649999999999999967e-02
4.150000000000000216e-02
5.700000000000000205e-02
7.249999999999999500e-02
8.799999999999999489e-02
6.725000000000000422e-02
6.224999999999999978e-02
4.649999999999999967e-02
6.725000000000000422e-02
1.449999999999999900e-01
9.324999999999999956e-02
4.150000000000000216e-02
6.725000000000000422e-02
4.150000000000000216e-02
6.224999999999999978e-02
7.774999999999999967e-02
7.774999999999999967e-02
8.275000000000000411e-02
7.774999999999999967e-02
4.150000000000000216e-02
6.224999999999999978e-02
4.150000000000000216e-02
6.224999999999999978e-02
4.649999999999999967e-02
6.725000000000000422e-02
6.224999999999999978e-02
6.725000000000000422e-02
7.774999999999999967e-02
5.700000000000000205e-02
5.174999999999999739e-02
9.850000000000000422e-02
1.242499999999999993e-01
4.649999999999999967e-02
5.174999999999999739e-02
6.224999999999999978e-02
6.725000000000000422e-02
7.774999999999999967e-02
5.174999999999999739e-02
9.850000000000000422e-02
7.774999999999999967e-02
7.249999999999999500e-02
5.700000000000000205e-02
6.224999999999999978e-02
5.700000000000000205e-02
1.034999999999999948e-01
7.774999999999999967e-02
8.799999999999999489e-02
7.249999999999999500e-02
5.174999999999999739e-02
4.649999999999999967e-02
6.725000000000000422e-02
7.774999999999999967e-02
6.224999999999999978e-02
6.224999999999999978e-02
5.700000000000000205e-02
5.700000000000000205e-02
7.249999999999999500e-02
1.087499999999999994e-01
5.174999999999999739e-02
8.275000000000000411e-02
7.249999999999999500e-02
7.249999999999999500e-02
7.249999999999999500e-02
7.774999999999999967e-02
8.275000000000000411e-02
5.700000000000000205e-02
4.649999999999999967e-02
5.174999999999999739e-02
5.700000000000000205e-02
4.649999999999999967e-02
1.034999999999999948e-01
6.224999999999999978e-02
8.275000000000000411e-02
6.224999999999999978e-02
6.224999999999999978e-02
5.700000000000000205e-02
5.174999999999999739e-02
5.174999999999999739e-02
4.150000000000000216e-02
7.774999999999999967e-02
6.725000000000000422e-02
8.275000000000000411e-02
5.174999999999999739e-02
1.034999999999999948e-01
1.812499999999999944e-01
5.174999999999999739e-02
5.174999999999999739e-02
5.174999999999999739e-02
5.174999999999999739e-02
6.725000000000000422e-02
5.174999999999999739e-02
6.224999999999999978e-02
5.174999999999999739e-02
6.725000000000000422e-02
5.174999999999999739e-02
7.249999999999999500e-02
9.324999999999999956e-02
6.725000000000000422e-02
6.224999999999999978e-02
6.224999999999999978e-02
4.649999999999999967e-02
7.774999999999999967e-02
6.224999999999999978e-02
4.150000000000000216e-02
4.649999999999999967e-02
5.174999999999999739e-02
5.174999999999999739e-02
6.224999999999999978e-02
6.725000000000000422e-02
7.774999999999999967e-02
7.249999999999999500e-02
5.174999999999999739e-02
4.649999999999999967e-02
5.700000000000000205e-02
6.224999999999999978e-02
5.174999999999999739e-02
5.174999999999999739e-02
4.649999999999999967e-02
5.700000000000000205e-02
5.174999999999999739e-02
7.249999999999999500e-02
6.224999999999999978e-02
6.725000000000000422e-02
4.649999999999999967e-02
7.249999999999999500e-02
5.700000000000000205e-02
1.087499999999999994e-01
4.649999999999999967e-02
5.700000000000000205e-02
5.174999999999999739e-02
5.700000000000000205e-02
6.224999999999999978e-02
6.224999999999999978e-02
7.774999999999999967e-02
8.275000000000000411e-02
7.249999999999999500e-02
6.224999999999999978e-02
6.224999999999999978e-02
6.725000000000000422e-02
5.700000000000000205e-02
6.224999999999999978e-02
6.725000000000000422e-02
7.249999999999999500e-02
6.224999999999999978e-02
5.700000000000000205e-02
7.774999999999999967e-02
4.649999999999999967e-02
9.324999999999999956e-02
6.725000000000000422e-02
7.249999999999999500e-02
4.649999999999999967e-02
5.700000000000000205e-02
6.224999999999999978e-02
5.700000000000000205e-02
7.249999999999999500e-02
6.725000000000000422e-02
4.150000000000000216e-02
6.725000000000000422e-02
8.275000000000000411e-02
7.249999999999999500e-02
1.295000000000000040e-01
6.224999999999999978e-02
6.224999999999999978e-02
6.224999999999999978e-02
4.649999999999999967e-02
5.700000000000000205e-02
4.150000000000000216e-02
6.725000000000000422e-02
5.700000000000000205e-02
5.700000000000000205e-02
4.649999999999999967e-02
5.174999999999999739e-02
7.774999999999999967e-02
6.725000000000000422e-02
4.649999999999999967e-02
5.174999999999999739e-02
3.624999999999999750e-02
6.224999999999999978e-02
5.700000000000000205e-02
6.224999999999999978e-02
3.624999999999999750e-02
5.174999999999999739e-02
4.649999999999999967e-02
4.649999999999999967e-02
6.224999999999999978e-02
8.275000000000000411e-02
7.774999999999999967e-02
5.174999999999999739e-02
5.174999999999999739e-02
5.700000000000000205e-02
8.275000000000000411e-02
6.725000000000000422e-02
5.700000000000000205e-02
4.150000000000000216e-02
8.275000000000000411e-02
6.725000000000000422e-02
4.649999999999999967e-02
6.224999999999999978e-02
4.649999999999999967e-02
6.725000000000000422e-02
1.140000000000000041e-01
4.649999999999999967e-02
9.324999999999999956e-02
5.700000000000000205e-02
7.249999999999999500e-02
7.249999999999999500e-02
6.725000000000000422e-02
4.150000000000000216e-02
6.224999999999999978e-02
4.150000000000000216e-02
5.174999999999999739e-02
7.774999999999999967e-02
6.224999999999999978e-02
1.034999999999999948e-01
4.649999999999999967e-02
6.224999999999999978e-02
3.624999999999999750e-02
5.174999999999999739e-02
5.174999999999999739e-02
6.725000000000000422e-02
4.150000000000000216e-02
4.649999999999999967e-02
4.649999999999999967e-02
6.224999999999999978e-02
4.150000000000000216e-02
9.324999999999999956e-02
7.774999999999999967e-02
5.700000000000000205e-02
5.700000000000000205e-02
5.700000000000000205e-02
6.725000000000000422e-02
5.174999999999999739e-02
5.700000000000000205e-02
5.174999999999999739e-02
6.725000000000000422e-02
7.249999999999999500e-02
5.700000000000000205e-02
6.725000000000000422e-02
7.774999999999999967e-02
5.174999999999999739e-02
4.649999999999999967e-02
5.700000000000000205e-02
5.700000000000000205e-02
5.700000000000000205e-02
7.249999999999999500e-02
5.174999999999999739e-02
6.725000000000000422e-02
6.224999999999999978e-02
7.774999999999999967e-02
5.174999999999999739e-02
5.174999999999999739e-02
1.034999999999999948e-01
6.725000000000000422e-02
5.174999999999999739e-02
4.649999999999999967e-02
6.725000000000000422e-02
6.725000000000000422e-02
5.174999999999999739e-02
4.649999999999999967e-02
4.150000000000000216e-02
4.150000000000000216e-02
6.725000000000000422e-02
4.649999999999999967e-02
5.700000000000000205e-02
6.725000000000000422e-02
6.224999999999999978e-02
7.774999999999999967e-02
5.174999999999999739e-02
5.700000000000000205e-02
3.624999999999999750e-02
6.224999999999999978e-02
5.174999999999999739e-02
5.174999999999999739e-02
4.649999999999999967e-02
5.174999999999999739e-02
9.850000000000000422e-02
1.192499999999999949e-01
5.174999999999999739e-02
5.174999999999999739e-02
5.700000000000000205e-02
7.249999999999999500e-02
7.249999999999999500e-02
8.275000000000000411e-02
5.174999999999999739e-02
6.725000000000000422e-02
7.774999999999999967e-02
5.174999999999999739e-02
5.700000000000000205e-02
7.249999999999999500e-02
5.700000000000000205e-02
5.700000000000000205e-02
4.649999999999999967e-02
5.700000000000000205e-02
8.275000000000000411e-02
4.649999999999999967e-02
6.224999999999999978e-02
7.249999999999999500e-02
4.649999999999999967e-02
5.700000000000000205e-02
5.700000000000000205e-02
7.249999999999999500e-02
5.700000000000000205e-02
4.649999999999999967e-02
3.624999999999999750e-02
8.799999999999999489e-02
9.324999999999999956e-02
8.275000000000000411e-02
4.649999999999999967e-02
3.099999999999999978e-02
4.150000000000000216e-02
5.174999999999999739e-02
4.649999999999999967e-02
4.649999999999999967e-02
9.850000000000000422e-02
4.150000000000000216e-02
4.649999999999999967e-02
4.150000000000000216e-02
5.700000000000000205e-02
5.174999999999999739e-02
6.725000000000000422e-02
6.224999999999999978e-02
5.174999999999999739e-02
5.174999999999999739e-02
3.624999999999999750e-02
6.725000000000000422e-02
8.275000000000000411e-02
7.774999999999999967e-02
7.249999999999999500e-02
5.174999999999999739e-02
4.649999999999999967e-02
6.224999999999999978e-02
6.224999999999999978e-02
4.150000000000000216e-02
4.649999999999999967e-02
5.700000000000000205e-02
7.249999999999999500e-02
6.224999999999999978e-02
8.275000000000000411e-02
5.700000000000000205e-02
9.324999999999999956e-02
9.324999999999999956e-02
5.700000000000000205e-02
1.449999999999999900e-01
7.249999999999999500e-02
4.649999999999999967e-02
6.725000000000000422e-02
7.774999999999999967e-02
4.649999999999999967e-02
4.649999999999999967e-02
6.725000000000000422e-02
5.174999999999999739e-02
4.649999999999999967e-02
7.774999999999999967e-02
6.224999999999999978e-02
5.174999999999999739e-02
6.224999999999999978e-02
9.324999999999999956e-02
1.087499999999999994e-01
7.249999999999999500e-02
5.174999999999999739e-02
7.774999999999999967e-02
5.174999999999999739e-02
4.649999999999999967e-02
6.725000000000000422e-02
6.224999999999999978e-02
7.249999999999999500e-02
1.140000000000000041e-01
9.324999999999999956e-02
9.324999999999999956e-02
7.249999999999999500e-02
7.774999999999999967e-02
7.249999999999999500e-02
7.774999999999999967e-02
4.649999999999999967e-02
4.649999999999999967e-02
8.799999999999999489e-02
9.324999999999999956e-02
9.850000000000000422e-02
7.249999999999999500e-02
1.034999999999999948e-01
1.295000000000000040e-01
9.324999999999999956e-02
5.174999999999999739e-02
6.725000000000000422e-02
6.725000000000000422e-02
6.224999999999999978e-02
7.249999999999999500e-02
5.174999999999999739e-02
8.275000000000000411e-02
1.034999999999999948e-01
8.275000000000000411e-02
5.700000000000000205e-02
6.725000000000000422e-02
2.020000000000000129e-01
1.087499999999999994e-01
1.034999999999999948e-01
9.324999999999999956e-02
8.799999999999999489e-02
7.774999999999999967e-02
1.192499999999999949e-01
6.725000000000000422e-02
7.774999999999999967e-02
1.034999999999999948e-01
6.224999999999999978e-02
4.649999999999999967e-02
7.249999999999999500e-02
1.192499999999999949e-01
9.324999999999999956e-02
6.725000000000000422e-02
4.649999999999999967e-02
5.700000000000000205e-02
9.850000000000000422e-02
9.324999999999999956e-02
7.249999999999999500e-02
5.700000000000000205e-02
6.224999999999999978e-02
9.324999999999999956e-02
7.774999999999999967e-02
7.774999999999999967e-02
8.799999999999999489e-02
6.224999999999999978e-02
4.150000000000000216e-02
5.700000000000000205e-02
6.224999999999999978e-02
4.150000000000000216e-02
4.150000000000000216e-02
4.649999999999999967e-02
4.150000000000000216e-02
4.150000000000000216e-02
5.174999999999999739e-02
7.774999999999999967e-02
6.725000000000000422e-02
6.224999999999999978e-02
5.700000000000000205e-02
6.725000000000000422e-02
1.140000000000000041e-01
1.242499999999999993e-01
7.774999999999999967e-02
8.275000000000000411e-02
1.034999999999999948e-01
9.324999999999999956e-02
1.140000000000000041e-01
1.034999999999999948e-01
1.242499999999999993e-01
6.224999999999999978e-02
9.324999999999999956e-02
9.850000000000000422e-02
6.224999999999999978e-02
8.275000000000000411e-02
8.799999999999999489e-02
1.087499999999999994e-01
1.347500000000000087e-01
1.502499999999999947e-01
8.799999999999999489e-02
8.275000000000000411e-02
1.140000000000000041e-01
6.725000000000000422e-02
1.295000000000000040e-01
5.700000000000000205e-02
7.249999999999999500e-02
5.174999999999999739e-02
6.725000000000000422e-02
5.174999999999999739e-02
5.700000000000000205e-02
5.174999999999999739e-02
7.249999999999999500e-02
7.774999999999999967e-02
1.140000000000000041e-01
7.249999999999999500e-02
7.249999999999999500e-02
1.034999999999999948e-01
6.224999999999999978e-02
3.624999999999999750e-02
6.224999999999999978e-02
6.224999999999999978e-02
7.249999999999999500e-02
7.249999999999999500e-02
3.624999999999999750e-02
6.224999999999999978e-02
5.700000000000000205e-02
7.249999999999999500e-02
6.224999999999999978e-02
8.275000000000000411e-02
1.034999999999999948e-01
5.174999999999999739e-02
5.700000000000000205e-02
6.224999999999999978e-02
9.324999999999999956e-02
6.725000000000000422e-02
6.725000000000000422e-02
5.700000000000000205e-02
5.700000000000000205e-02
6.224999999999999978e-02
6.725000000000000422e-02
5.700000000000000205e-02
8.799999999999999489e-02
8.799999999999999489e-02
7.774999999999999967e-02
8.799999999999999489e-02
5.700000000000000205e-02
6.224999999999999978e-02
4.649999999999999967e-02
6.725000000000000422e-02
5.174999999999999739e-02
5.174999999999999739e-02
7.774999999999999967e-02
6.224999999999999978e-02
5.174999999999999739e-02
5.174999999999999739e-02
5.174999999999999739e-02
7.249999999999999500e-02
5.174999999999999739e-02
5.174999999999999739e-02
5.700000000000000205e-02
6.725000000000000422e-02
6.224999999999999978e-02
7.774999999999999967e-02
4.649999999999999967e-02
6.224999999999999978e-02
5.700000000000000205e-02
4.649999999999999967e-02
8.275000000000000411e-02
8.275000000000000411e-02
1.605000000000000038e-01
9.324999999999999956e-02
8.275000000000000411e-02
8.275000000000000411e-02
8.275000000000000411e-02
1.192499999999999949e-01
1.140000000000000041e-01
9.324999999999999956e-02
1.087499999999999994e-01
7.774999999999999967e-02
8.275000000000000411e-02
9.850000000000000422e-02
1.605000000000000038e-01
1.087499999999999994e-01
8.799999999999999489e-02
1.087499999999999994e-01
3.624999999999999750e-02
9.850000000000000422e-02
6.224999999999999978e-02
5.700000000000000205e-02
6.725000000000000422e-02
4.150000000000000216e-02
8.799999999999999489e-02
1.140000000000000041e-01
6.224999999999999978e-02
5.700000000000000205e-02
6.224999999999999978e-02
4.150000000000000216e-02
4.649999999999999967e-02
6.224999999999999978e-02
5.174999999999999739e-02
5.174999999999999739e-02
7.774999999999999967e-02
1.140000000000000041e-01
9.850000000000000422e-02
5.700000000000000205e-02
6.725000000000000422e-02
4.649999999999999967e-02
9.324999999999999956e-02
1.087499999999999994e-01
5.174999999999999739e-02
7.774999999999999967e-02
6.224999999999999978e-02
7.774999999999999967e-02
6.725000000000000422e-02
7.249999999999999500e-02
8.275000000000000411e-02
7.249999999999999500e-02
6.224999999999999978e-02
5.174999999999999739e-02
7.774999999999999967e-02
5.174999999999999739e-02
4.150000000000000216e-02
5.700000000000000205e-02
5.174999999999999739e-02
4.649999999999999967e-02
6.224999999999999978e-02
6.224999999999999978e-02
4.150000000000000216e-02
1.034999999999999948e-01
6.725000000000000422e-02
6.224999999999999978e-02
6.224999999999999978e-02
8.799999999999999489e-02
6.224999999999999978e-02
4.649999999999999967e-02
5.174999999999999739e-02
6.725000000000000422e-02
4.649999999999999967e-02
4.649999999999999967e-02
6.224999999999999978e-02
8.799999999999999489e-02
6.725000000000000422e-02
5.174999999999999739e-02
5.174999999999999739e-02
6.224999999999999978e-02
6.224999999999999978e-02
7.774999999999999967e-02
6.725000000000000422e-02
5.174999999999999739e-02
4.649999999999999967e-02
3.624999999999999750e-02
5.174999999999999739e-02
4.649999999999999967e-02
7.249999999999999500e-02
9.324999999999999956e-02
5.174999999999999739e-02
5.700000000000000205e-02
5.700000000000000205e-02
3.624999999999999750e-02
6.224999999999999978e-02
6.725000000000000422e-02
5.174999999999999739e-02
8.275000000000000411e-02
6.224999999999999978e-02
6.725000000000000422e-02
7.249999999999999500e-02
5.700000000000000205e-02
8.799999999999999489e-02
6.224999999999999978e-02
5.700000000000000205e-02
5.174999999999999739e-02
5.700000000000000205e-02
6.224999999999999978e-02
4.150000000000000216e-02
4.649999999999999967e-02
4.150000000000000216e-02
5.174999999999999739e-02
5.700000000000000205e-02
5.174999999999999739e-02
9.324999999999999956e-02
1.034999999999999948e-01
7.774999999999999967e-02
6.224999999999999978e-02
6.224999999999999978e-02
7.249999999999999500e-02
5.700000000000000205e-02
8.275000000000000411e-02
9.324999999999999956e-02
4.649999999999999967e-02
6.725000000000000422e-02
6.725000000000000422e-02
7.774999999999999967e-02
6.725000000000000422e-02
6.725000000000000422e-02
9.850000000000000422e-02
6.725000000000000422e-02
6.725000000000000422e-02
6.224999999999999978e-02
4.649999999999999967e-02
5.174999999999999739e-02
5.700000000000000205e-02
4.150000000000000216e-02
6.224999999999999978e-02
8.799999999999999489e-02
8.799999999999999489e-02
6.224999999999999978e-02
5.700000000000000205e-02
4.649999999999999967e-02
9.324999999999999956e-02
5.174999999999999739e-02
5.174999999999999739e-02
7.249999999999999500e-02
4.649999999999999967e-02
4.150000000000000216e-02
5.700000000000000205e-02
5.700000000000000205e-02
5.700000000000000205e-02
6.725000000000000422e-02
5.174999999999999739e-02
8.275000000000000411e-02
5.700000000000000205e-02
5.700000000000000205e-02
9.324999999999999956e-02
6.725000000000000422e-02
6.224999999999999978e-02
7.249999999999999500e-02
6.224999999999999978e-02
5.174999999999999739e-02
6.224999999999999978e-02
7.249999999999999500e-02
4.649999999999999967e-02
4.649999999999999967e-02
4.649999999999999967e-02
6.224999999999999978e-02
7.774999999999999967e-02
7.774999999999999967e-02
5.174999999999999739e-02
5.174999999999999739e-02
6.224999999999999978e-02
6.725000000000000422e-02
4.649999999999999967e-02
5.174999999999999739e-02
5.174999999999999739e-02
5.700000000000000205e-02
