2.434999999999999942e-01
2.382499999999999896e-01
4.712500000000000022e-01
3.107500000000000262e-01
3.987499999999999933e-01
2.382499999999999896e-01
2.899999999999999800e-01
3.107500000000000262e-01
3.004999999999999893e-01
3.212499999999999800e-01
3.574999999999999845e-01
3.160000000000000031e-01
3.262499999999999845e-01
2.537499999999999756e-01
2.590000000000000080e-01
3.367499999999999938e-01
3.469999999999999751e-01
3.937499999999999889e-01
3.160000000000000031e-01
6.007500000000000062e-01
6.577499999999999458e-01
8.649999999999999911e-01
3.937499999999999889e-01
6.682500000000000107e-01
4.247500000000000164e-01
3.160000000000000031e-01
3.262499999999999845e-01
2.745000000000000218e-01
2.952500000000000124e-01
4.194999999999999840e-01
3.054999999999999938e-01
4.247500000000000164e-01
2.952500000000000124e-01
3.937499999999999889e-01
3.417499999999999982e-01
4.610000000000000209e-01
3.937499999999999889e-01
3.212499999999999800e-01
3.054999999999999938e-01
4.610000000000000209e-01
5.957500000000000018e-01
7.562499999999999778e-01
3.522500000000000075e-01
2.537499999999999756e-01
2.484999999999999987e-01
3.885000000000000120e-01
4.299999999999999933e-01
3.987499999999999933e-01
3.624999999999999889e-01
3.054999999999999938e-01
2.745000000000000218e-01
3.522500000000000075e-01
3.937499999999999889e-01
2.434999999999999942e-01
2.642499999999999849e-01
3.315000000000000169e-01
2.797499999999999987e-01
3.937499999999999889e-01
3.574999999999999845e-01
2.899999999999999800e-01
2.745000000000000218e-01
2.174999999999999989e-01
1.917500000000000038e-01
2.745000000000000218e-01
3.522500000000000075e-01
1.657500000000000084e-01
2.174999999999999989e-01
9.850000000000000422e-02
1.967500000000000082e-01
1.864999999999999991e-01
1.967500000000000082e-01
8.275000000000000411e-02
1.347500000000000087e-01
1.449999999999999900e-01
3.054999999999999938e-01
2.072499999999999898e-01
1.034999999999999948e-01
1.140000000000000041e-01
2.484999999999999987e-01
2.020000000000000129e-01
9.324999999999999956e-02
5.700000000000000205e-02
9.850000000000000422e-02
3.417499999999999982e-01
1.502499999999999947e-01
8.799999999999999489e-02
2.745000000000000218e-01
1.449999999999999900e-01
1.449999999999999900e-01
2.642499999999999849e-01
1.192499999999999949e-01
1.192499999999999949e-01
2.434999999999999942e-01
1.710000000000000131e-01
1.242499999999999993e-01
9.850000000000000422e-02
2.434999999999999942e-01
6.224999999999999978e-02
1.192499999999999949e-01
9.850000000000000422e-02
8.275000000000000411e-02
7.249999999999999500e-02
1.087499999999999994e-01
4.649999999999999967e-02
6.224999999999999978e-02
6.725000000000000422e-02
1.034999999999999948e-01
7.249999999999999500e-02
7.249999999999999500e-02
6.725000000000000422e-02
6.224999999999999978e-02
9.324999999999999956e-02
5.174999999999999739e-02
7.249999999999999500e-02
5.700000000000000205e-02
4.649999999999999967e-02
3.624999999999999750e-02
8.799999999999999489e-02
9.324999999999999956e-02
6.725000000000000422e-02
1.502499999999999947e-01
5.174999999999999739e-02
1.192499999999999949e-01
1.034999999999999948e-01
6.725000000000000422e-02
5.174999999999999739e-02
6.224999999999999978e-02
6.224999999999999978e-02
9.850000000000000422e-02
7.249999999999999500e-02
7.249999999999999500e-02
6.224999999999999978e-02
6.725000000000000422e-02
6.725000000000000422e-02
5.174999999999999739e-02
5.174999999999999739e-02
4.649999999999999967e-02
6.725000000000000422e-02
4.649999999999999967e-02
5.174999999999999739e-02
5.174999999999999739e-02
8.275000000000000411e-02
1.502499999999999947e-01
8.275000000000000411e-02
7.249999999999999500e-02
5.700000000000000205e-02
7.249999999999999500e-02
8.799999999999999489e-02
7.249999999999999500e-02
8.275000000000000411e-02
5.024999999999999467e-01
1.864999999999999991e-01
6.224999999999999978e-02
2.072499999999999898e-01
7.774999999999999967e-02
1.554999999999999993e-01
1.034999999999999948e-01
8.799999999999999489e-02
1.347500000000000087e-01
7.774999999999999967e-02
5.174999999999999739e-02
8.799999999999999489e-02
6.725000000000000422e-02
9.850000000000000422e-02
1.502499999999999947e-01
1.295000000000000040e-01
9.324999999999999956e-02
9.850000000000000422e-02
6.224999999999999978e-02
7.774999999999999967e-02
1.449999999999999900e-01
1.140000000000000041e-01
9.324999999999999956e-02
8.799999999999999489e-02
9.324999999999999956e-02
8.275000000000000411e-02
5.174999999999999739e-02
7.249999999999999500e-02
8.275000000000000411e-02
4.649999999999999967e-02
4.649999999999999967e-02
6.224999999999999978e-02
5.700000000000000205e-02
6.224999999999999978e-02
6.725000000000000422e-02
7.774999999999999967e-02
8.275000000000000411e-02
8.799999999999999489e-02
8.799999999999999489e-02
9.324999999999999956e-02
9.850000000000000422e-02
8.799999999999999489e-02
8.275000000000000411e-02
4.649999999999999967e-02
4.150000000000000216e-02
7.774999999999999967e-02
9.850000000000000422e-02
1.087499999999999994e-01
6.224999999999999978e-02
5.700000000000000205e-02
4.649999999999999967e-02
4.649999999999999967e-02
5.174999999999999739e-02
9.324999999999999956e-02
9.850000000000000422e-02
8.799999999999999489e-02
7.249999999999999500e-02
7.774999999999999967e-02
1.087499999999999994e-01
1.812499999999999944e-01
1.192499999999999949e-01
7.249999999999999500e-02
5.700000000000000205e-02
1.864999999999999991e-01
1.087499999999999994e-01
5.174999999999999739e-02
4.649999999999999967e-02
7.774999999999999967e-02
5.700000000000000205e-02
6.224999999999999978e-02
7.774999999999999967e-02
9.850000000000000422e-02
1.449999999999999900e-01
7.774999999999999967e-02
6.725000000000000422e-02
6.224999999999999978e-02
7.774999999999999967e-02
1.192499999999999949e-01
1.554999999999999993e-01
1.657500000000000084e-01
6.725000000000000422e-02
7.774999999999999967e-02
1.140000000000000041e-01
1.710000000000000131e-01
8.799999999999999489e-02
6.725000000000000422e-02
2.692499999999999893e-01
2.952500000000000124e-01
1.034999999999999948e-01
5.174999999999999739e-02
7.249999999999999500e-02
6.224999999999999978e-02
7.249999999999999500e-02
8.275000000000000411e-02
5.174999999999999739e-02
3.107500000000000262e-01
1.710000000000000131e-01
6.224999999999999978e-02
6.725000000000000422e-02
1.605000000000000038e-01
1.034999999999999948e-01
8.799999999999999489e-02
5.174999999999999739e-02
9.850000000000000422e-02
9.324999999999999956e-02
9.850000000000000422e-02
1.034999999999999948e-01
5.700000000000000205e-02
6.725000000000000422e-02
5.700000000000000205e-02
8.275000000000000411e-02
2.072499999999999898e-01
6.224999999999999978e-02
9.850000000000000422e-02
5.174999999999999739e-02
1.449999999999999900e-01
8.275000000000000411e-02
8.275000000000000411e-02
8.799999999999999489e-02
6.725000000000000422e-02
7.249999999999999500e-02
6.725000000000000422e-02
7.774999999999999967e-02
7.249999999999999500e-02
7.774999999999999967e-02
6.725000000000000422e-02
5.174999999999999739e-02
8.275000000000000411e-02
2.382499999999999896e-01
7.249999999999999500e-02
7.774999999999999967e-02
6.725000000000000422e-02
6.725000000000000422e-02
5.174999999999999739e-02
5.700000000000000205e-02
6.725000000000000422e-02
9.850000000000000422e-02
8.275000000000000411e-02
7.249999999999999500e-02
9.850000000000000422e-02
5.700000000000000205e-02
7.774999999999999967e-02
1.034999999999999948e-01
1.605000000000000038e-01
6.224999999999999978e-02
1.759999999999999898e-01
8.275000000000000411e-02
1.864999999999999991e-01
5.700000000000000205e-02
1.087499999999999994e-01
6.224999999999999978e-02
6.224999999999999978e-02
7.774999999999999967e-02
6.725000000000000422e-02
8.799999999999999489e-02
1.087499999999999994e-01
8.275000000000000411e-02
1.034999999999999948e-01
8.275000000000000411e-02
6.725000000000000422e-02
9.850000000000000422e-02
6.725000000000000422e-02
8.275000000000000411e-02
1.295000000000000040e-01
1.140000000000000041e-01
8.275000000000000411e-02
1.502499999999999947e-01
6.224999999999999978e-02
1.449999999999999900e-01
8.275000000000000411e-02
8.275000000000000411e-02
8.799999999999999489e-02
2.072499999999999898e-01
9.324999999999999956e-02
1.192499999999999949e-01
5.174999999999999739e-02
9.324999999999999956e-02
8.275000000000000411e-02
8.275000000000000411e-02
6.725000000000000422e-02
1.034999999999999948e-01
9.324999999999999956e-02
7.249999999999999500e-02
1.192499999999999949e-01
1.295000000000000040e-01
1.034999999999999948e-01
1.397500000000000131e-01
6.725000000000000422e-02
6.725000000000000422e-02
1.242499999999999993e-01
7.249999999999999500e-02
6.224999999999999978e-02
9.850000000000000422e-02
9.850000000000000422e-02
7.774999999999999967e-02
7.774999999999999967e-02
6.224999999999999978e-02
8.275000000000000411e-02
7.249999999999999500e-02
8.799999999999999489e-02
5.700000000000000205e-02
8.275000000000000411e-02
3.832499999999999796e-01
1.347500000000000087e-01
6.725000000000000422e-02
9.324999999999999956e-02
7.249999999999999500e-02
1.034999999999999948e-01
1.034999999999999948e-01
8.275000000000000411e-02
5.700000000000000205e-02
6.725000000000000422e-02
6.224999999999999978e-02
6.224999999999999978e-02
1.140000000000000041e-01
8.275000000000000411e-02
7.249999999999999500e-02
5.174999999999999739e-02
1.917500000000000038e-01
1.657500000000000084e-01
7.774999999999999967e-02
1.140000000000000041e-01
1.242499999999999993e-01
6.725000000000000422e-02
6.224999999999999978e-02
7.249999999999999500e-02
6.224999999999999978e-02
1.347500000000000087e-01
7.774999999999999967e-02
9.324999999999999956e-02
1.449999999999999900e-01
7.249999999999999500e-02
1.242499999999999993e-01
5.174999999999999739e-02
8.275000000000000411e-02
7.249999999999999500e-02
8.799999999999999489e-02
8.799999999999999489e-02
9.324999999999999956e-02
6.224999999999999978e-02
7.774999999999999967e-02
7.249999999999999500e-02
7.774999999999999967e-02
7.774999999999999967e-02
9.850000000000000422e-02
1.034999999999999948e-01
6.224999999999999978e-02
8.799999999999999489e-02
9.324999999999999956e-02
1.192499999999999949e-01
7.249999999999999500e-02
8.275000000000000411e-02
1.864999999999999991e-01
9.324999999999999956e-02
1.140000000000000041e-01
1.140000000000000041e-01
7.774999999999999967e-02
1.657500000000000084e-01
7.774999999999999967e-02
8.275000000000000411e-02
6.725000000000000422e-02
6.224999999999999978e-02
1.242499999999999993e-01
6.725000000000000422e-02
7.774999999999999967e-02
6.224999999999999978e-02
4.649999999999999967e-02
1.140000000000000041e-01
1.295000000000000040e-01
1.034999999999999948e-01
9.850000000000000422e-02
7.249999999999999500e-02
7.774999999999999967e-02
6.224999999999999978e-02
1.502499999999999947e-01
1.192499999999999949e-01
6.725000000000000422e-02
7.249999999999999500e-02
1.554999999999999993e-01
1.192499999999999949e-01
6.224999999999999978e-02
7.774999999999999967e-02
8.275000000000000411e-02
8.275000000000000411e-02
7.249999999999999500e-02
4.649999999999999967e-02
6.224999999999999978e-02
6.725000000000000422e-02
7.249999999999999500e-02
8.799999999999999489e-02
6.224999999999999978e-02
5.700000000000000205e-02
7.249999999999999500e-02
6.725000000000000422e-02
4.150000000000000216e-02
6.224999999999999978e-02
1.140000000000000041e-01
7.774999999999999967e-02
7.249999999999999500e-02
6.224999999999999978e-02
5.174999999999999739e-02
7.249999999999999500e-02
7.249999999999999500e-02
5.174999999999999739e-02
5.174999999999999739e-02
5.174999999999999739e-02
5.174999999999999739e-02
4.649999999999999967e-02
5.700000000000000205e-02
5.174999999999999739e-02
1.087499999999999994e-01
9.850000000000000422e-02
5.700000000000000205e-02
6.224999999999999978e-02
6.725000000000000422e-02
6.725000000000000422e-02
6.725000000000000422e-02
6.725000000000000422e-02
6.725000000000000422e-02
7.774999999999999967e-02
9.324999999999999956e-02
4.649999999999999967e-02
5.700000000000000205e-02
6.224999999999999978e-02
8.799999999999999489e-02
5.700000000000000205e-02
7.249999999999999500e-02
7.249999999999999500e-02
8.275000000000000411e-02
9.324999999999999956e-02
1.657500000000000084e-01
1.967500000000000082e-01
8.799999999999999489e-02
8.799999999999999489e-02
7.249999999999999500e-02
6.224999999999999978e-02
8.799999999999999489e-02
1.087499999999999994e-01
6.224999999999999978e-02
8.799999999999999489e-02
7.774999999999999967e-02
7.774999999999999967e-02
8.275000000000000411e-02
4.150000000000000216e-02
5.174999999999999739e-02
5.174999999999999739e-02
9.324999999999999956e-02
4.649999999999999967e-02
6.224999999999999978e-02
6.725000000000000422e-02
7.249999999999999500e-02
7.774999999999999967e-02
8.275000000000000411e-02
7.249999999999999500e-02
1.034999999999999948e-01
9.850000000000000422e-02
7.774999999999999967e-02
6.725000000000000422e-02
6.224999999999999978e-02
7.249999999999999500e-02
3.624999999999999750e-02
7.774999999999999967e-02
8.275000000000000411e-02
6.725000000000000422e-02
7.249999999999999500e-02
6.725000000000000422e-02
5.174999999999999739e-02
9.850000000000000422e-02
7.249999999999999500e-02
7.774999999999999967e-02
5.700000000000000205e-02
6.224999999999999978e-02
8.275000000000000411e-02
8.799999999999999489e-02
8.799999999999999489e-02
9.324999999999999956e-02
6.224999999999999978e-02
7.774999999999999967e-02
7.249999999999999500e-02
5.174999999999999739e-02
6.725000000000000422e-02
6.224999999999999978e-02
5.700000000000000205e-02
5.700000000000000205e-02
8.275000000000000411e-02
7.249999999999999500e-02
5.700000000000000205e-02
9.850000000000000422e-02
8.275000000000000411e-02
1.140000000000000041e-01
7.774999999999999967e-02
5.174999999999999739e-02
6.224999999999999978e-02
8.799999999999999489e-02
6.725000000000000422e-02
5.700000000000000205e-02
9.324999999999999956e-02
9.324999999999999956e-02
1.087499999999999994e-01
7.249999999999999500e-02
7.774999999999999967e-02
6.725000000000000422e-02
6.224999999999999978e-02
6.725000000000000422e-02
1.554999999999999993e-01
1.864999999999999991e-01
1.087499999999999994e-01
6.725000000000000422e-02
6.224999999999999978e-02
9.324999999999999956e-02
8.799999999999999489e-02
6.725000000000000422e-02
6.224999999999999978e-02
6.224999999999999978e-02
1.087499999999999994e-01
8.799999999999999489e-02
7.249999999999999500e-02
8.275000000000000411e-02
7.249999999999999500e-02
6.725000000000000422e-02
5.174999999999999739e-02
6.224999999999999978e-02
7.249999999999999500e-02
7.249999999999999500e-02
7.249999999999999500e-02
7.249999999999999500e-02
1.140000000000000041e-01
1.347500000000000087e-01
8.275000000000000411e-02
6.224999999999999978e-02
7.249999999999999500e-02
6.224999999999999978e-02
6.725000000000000422e-02
8.275000000000000411e-02
8.799999999999999489e-02
9.850000000000000422e-02
8.275000000000000411e-02
1.397500000000000131e-01
7.774999999999999967e-02
7.249999999999999500e-02
5.174999999999999739e-02
8.275000000000000411e-02
6.224999999999999978e-02
7.774999999999999967e-02
8.275000000000000411e-02
7.249999999999999500e-02
5.174999999999999739e-02
4.150000000000000216e-02
7.249999999999999500e-02
6.725000000000000422e-02
6.224999999999999978e-02
1.034999999999999948e-01
9.850000000000000422e-02
6.224999999999999978e-02
5.174999999999999739e-02
1.087499999999999994e-01
1.087499999999999994e-01
7.774999999999999967e-02
6.725000000000000422e-02
5.700000000000000205e-02
5.174999999999999739e-02
6.725000000000000422e-02
5.700000000000000205e-02
4.649999999999999967e-02
9.324999999999999956e-02
2.227500000000000036e-01
3.624999999999999889e-01
6.992500000000000382e-01
5.490000000000000435e-01
3.677500000000000213e-01
1.864999999999999991e-01
6.224999999999999978e-02
1.140000000000000041e-01
9.324999999999999956e-02
1.140000000000000041e-01
8.799999999999999489e-02
1.087499999999999994e-01
2.122499999999999942e-01
1.087499999999999994e-01
9.324999999999999956e-02
1.554999999999999993e-01
1.140000000000000041e-01
2.174999999999999989e-01
2.590000000000000080e-01
1.397500000000000131e-01
3.262499999999999845e-01
8.799999999999999489e-02
2.642499999999999849e-01
2.692499999999999893e-01
2.280000000000000082e-01
2.484999999999999987e-01
2.484999999999999987e-01
1.087499999999999994e-01
1.034999999999999948e-01
1.967500000000000082e-01
1.657500000000000084e-01
1.967500000000000082e-01
2.434999999999999942e-01
1.812499999999999944e-01
1.710000000000000131e-01
1.605000000000000038e-01
1.605000000000000038e-01
2.072499999999999898e-01
1.502499999999999947e-01
2.280000000000000082e-01
1.917500000000000038e-01
1.917500000000000038e-01
2.849999999999999756e-01
1.864999999999999991e-01
2.174999999999999989e-01
1.347500000000000087e-01
1.242499999999999993e-01
2.122499999999999942e-01
2.484999999999999987e-01
2.330000000000000127e-01
1.347500000000000087e-01
1.657500000000000084e-01
1.554999999999999993e-01
2.174999999999999989e-01
2.537499999999999756e-01
2.280000000000000082e-01
1.759999999999999898e-01
1.759999999999999898e-01
2.849999999999999756e-01
2.020000000000000129e-01
1.812499999999999944e-01
3.212499999999999800e-01
2.072499999999999898e-01
1.917500000000000038e-01
3.107500000000000262e-01
1.759999999999999898e-01
2.642499999999999849e-01
1.034999999999999948e-01
1.864999999999999991e-01
1.657500000000000084e-01
2.537499999999999756e-01
1.657500000000000084e-01
1.812499999999999944e-01
2.020000000000000129e-01
2.020000000000000129e-01
2.899999999999999800e-01
2.382499999999999896e-01
1.917500000000000038e-01
2.537499999999999756e-01
2.642499999999999849e-01
2.382499999999999896e-01
2.797499999999999987e-01
4.247500000000000164e-01
2.590000000000000080e-01
1.087499999999999994e-01
1.605000000000000038e-01
1.554999999999999993e-01
1.192499999999999949e-01
1.295000000000000040e-01
1.347500000000000087e-01
1.347500000000000087e-01
2.122499999999999942e-01
9.850000000000000422e-02
2.174999999999999989e-01
1.034999999999999948e-01
1.087499999999999994e-01
1.087499999999999994e-01
8.799999999999999489e-02
7.249999999999999500e-02
1.295000000000000040e-01
1.034999999999999948e-01
1.657500000000000084e-01
2.434999999999999942e-01
1.034999999999999948e-01
1.967500000000000082e-01
1.812499999999999944e-01
2.072499999999999898e-01
3.522500000000000075e-01
1.554999999999999993e-01
8.275000000000000411e-02
1.812499999999999944e-01
8.799999999999999489e-02
1.295000000000000040e-01
7.774999999999999967e-02
9.324999999999999956e-02
6.725000000000000422e-02
1.034999999999999948e-01
9.324999999999999956e-02
7.249999999999999500e-02
1.140000000000000041e-01
7.774999999999999967e-02
8.799999999999999489e-02
7.774999999999999967e-02
6.725000000000000422e-02
8.799999999999999489e-02
9.850000000000000422e-02
7.249999999999999500e-02
6.725000000000000422e-02
8.275000000000000411e-02
7.774999999999999967e-02
1.967500000000000082e-01
1.034999999999999948e-01
1.192499999999999949e-01
9.850000000000000422e-02
6.725000000000000422e-02
8.275000000000000411e-02
1.034999999999999948e-01
2.020000000000000129e-01
1.605000000000000038e-01
1.192499999999999949e-01
6.725000000000000422e-02
8.799999999999999489e-02
8.799999999999999489e-02
1.087499999999999994e-01
2.174999999999999989e-01
1.657500000000000084e-01
1.192499999999999949e-01
6.725000000000000422e-02
8.799999999999999489e-02
7.774999999999999967e-02
4.649999999999999967e-02
6.725000000000000422e-02
9.324999999999999956e-02
1.449999999999999900e-01
9.324999999999999956e-02
2.020000000000000129e-01
1.192499999999999949e-01
1.917500000000000038e-01
1.140000000000000041e-01
1.140000000000000041e-01
1.657500000000000084e-01
1.812499999999999944e-01
2.745000000000000218e-01
6.725000000000000422e-02
6.224999999999999978e-02
8.275000000000000411e-02
9.850000000000000422e-02
7.249999999999999500e-02
1.192499999999999949e-01
8.799999999999999489e-02
4.649999999999999967e-02
1.034999999999999948e-01
4.649999999999999967e-02
7.249999999999999500e-02
1.397500000000000131e-01
6.224999999999999978e-02
7.774999999999999967e-02
7.774999999999999967e-02
5.174999999999999739e-02
4.649999999999999967e-02
6.725000000000000422e-02
8.799999999999999489e-02
5.174999999999999739e-02
5.700000000000000205e-02
8.275000000000000411e-02
5.700000000000000205e-02
5.700000000000000205e-02
7.249999999999999500e-02
7.774999999999999967e-02
5.700000000000000205e-02
8.275000000000000411e-02
4.649999999999999967e-02
6.725000000000000422e-02
5.700000000000000205e-02
6.224999999999999978e-02
5.700000000000000205e-02
6.725000000000000422e-02
6.224999999999999978e-02
7.249999999999999500e-02
5.174999999999999739e-02
6.224999999999999978e-02
9.324999999999999956e-02
6.725000000000000422e-02
7.249999999999999500e-02
5.174999999999999739e-02
8.275000000000000411e-02
7.249999999999999500e-02
6.725000000000000422e-02
5.174999999999999739e-02
8.799999999999999489e-02
7.774999999999999967e-02
7.249999999999999500e-02
6.224999999999999978e-02
8.799999999999999489e-02
1.967500000000000082e-01
3.624999999999999889e-01
3.107500000000000262e-01
3.367499999999999938e-01
1.967500000000000082e-01
3.417499999999999982e-01
5.490000000000000435e-01
4.662499999999999978e-01
4.299999999999999933e-01
5.232499999999999929e-01
3.160000000000000031e-01
4.299999999999999933e-01
2.590000000000000080e-01
3.004999999999999893e-01
5.282499999999999973e-01
7.717500000000000471e-01
7.199999999999999734e-01
4.247500000000000164e-01
4.092500000000000027e-01
4.817500000000000115e-01
2.122499999999999942e-01
3.832499999999999796e-01
3.677500000000000213e-01
2.642499999999999849e-01
3.937499999999999889e-01
3.469999999999999751e-01
3.212499999999999800e-01
3.160000000000000031e-01
1.605000000000000038e-01
2.122499999999999942e-01
2.122499999999999942e-01
3.107500000000000262e-01
3.417499999999999982e-01
3.780000000000000027e-01
2.745000000000000218e-01
6.162499999999999645e-01
3.832499999999999796e-01
2.692499999999999893e-01
3.004999999999999893e-01
2.020000000000000129e-01
2.537499999999999756e-01
1.917500000000000038e-01
2.122499999999999942e-01
1.657500000000000084e-01
1.140000000000000041e-01
1.034999999999999948e-01
7.249999999999999500e-02
7.774999999999999967e-02
1.192499999999999949e-01
1.759999999999999898e-01
5.174999999999999739e-02
6.725000000000000422e-02
8.799999999999999489e-02
7.249999999999999500e-02
1.759999999999999898e-01
9.324999999999999956e-02
1.710000000000000131e-01
1.140000000000000041e-01
5.174999999999999739e-02
7.774999999999999967e-02
8.799999999999999489e-02
8.799999999999999489e-02
7.249999999999999500e-02
5.700000000000000205e-02
5.700000000000000205e-02
6.725000000000000422e-02
7.774999999999999967e-02
6.224999999999999978e-02
5.700000000000000205e-02
5.174999999999999739e-02
8.799999999999999489e-02
9.850000000000000422e-02
6.725000000000000422e-02
6.725000000000000422e-02
6.224999999999999978e-02
6.224999999999999978e-02
5.700000000000000205e-02
6.725000000000000422e-02
6.224999999999999978e-02
7.249999999999999500e-02
6.224999999999999978e-02
9.324999999999999956e-02
1.710000000000000131e-01
6.725000000000000422e-02
1.967500000000000082e-01
7.774999999999999967e-02
2.072499999999999898e-01
6.725000000000000422e-02
8.275000000000000411e-02
2.020000000000000129e-01
1.347500000000000087e-01
3.937499999999999889e-01
6.725000000000000422e-02
1.192499999999999949e-01
3.004999999999999893e-01
5.700000000000000205e-02
5.700000000000000205e-02
8.275000000000000411e-02
6.224999999999999978e-02
5.174999999999999739e-02
7.249999999999999500e-02
6.725000000000000422e-02
9.324999999999999956e-02
6.725000000000000422e-02
5.174999999999999739e-02
7.774999999999999967e-02
5.700000000000000205e-02
7.249999999999999500e-02
4.649999999999999967e-02
6.224999999999999978e-02
4.150000000000000216e-02
5.700000000000000205e-02
4.150000000000000216e-02
8.275000000000000411e-02
6.224999999999999978e-02
5.174999999999999739e-02
4.649999999999999967e-02
7.249999999999999500e-02
5.174999999999999739e-02
1.087499999999999994e-01
9.324999999999999956e-02
4.649999999999999967e-02
4.150000000000000216e-02
6.725000000000000422e-02
5.174999999999999739e-02
5.174999999999999739e-02
5.174999999999999739e-02
7.774999999999999967e-02
7.774999999999999967e-02
6.224999999999999978e-02
6.725000000000000422e-02
6.224999999999999978e-02
1.140000000000000041e-01
5.700000000000000205e-02
4.649999999999999967e-02
1.087499999999999994e-01
6.224999999999999978e-02
8.799999999999999489e-02
9.850000000000000422e-02
6.725000000000000422e-02
6.224999999999999978e-02
1.192499999999999949e-01
8.799999999999999489e-02
8.799999999999999489e-02
7.774999999999999967e-02
9.324999999999999956e-02
1.140000000000000041e-01
7.249999999999999500e-02
1.502499999999999947e-01
8.275000000000000411e-02
8.799999999999999489e-02
6.725000000000000422e-02
7.774999999999999967e-02
9.850000000000000422e-02
1.140000000000000041e-01
1.449999999999999900e-01
1.502499999999999947e-01
1.967500000000000082e-01
1.034999999999999948e-01
9.324999999999999956e-02
6.224999999999999978e-02
8.799999999999999489e-02
1.034999999999999948e-01
1.449999999999999900e-01
8.275000000000000411e-02
7.249999999999999500e-02
7.249999999999999500e-02
8.275000000000000411e-02
9.324999999999999956e-02
7.774999999999999967e-02
9.324999999999999956e-02
7.249999999999999500e-02
7.774999999999999967e-02
6.725000000000000422e-02
6.224999999999999978e-02
6.224999999999999978e-02
7.774999999999999967e-02
6.725000000000000422e-02
2.692499999999999893e-01
1.759999999999999898e-01
1.087499999999999994e-01
1.397500000000000131e-01
8.275000000000000411e-02
8.799999999999999489e-02
5.700000000000000205e-02
7.774999999999999967e-02
8.275000000000000411e-02
5.700000000000000205e-02
7.774999999999999967e-02
1.449999999999999900e-01
6.224999999999999978e-02
5.700000000000000205e-02
5.174999999999999739e-02
5.174999999999999739e-02
7.249999999999999500e-02
8.275000000000000411e-02
6.725000000000000422e-02
6.725000000000000422e-02
5.174999999999999739e-02
7.249999999999999500e-02
5.174999999999999739e-02
6.224999999999999978e-02
4.649999999999999967e-02
4.649999999999999967e-02
6.224999999999999978e-02
7.249999999999999500e-02
1.034999999999999948e-01
5.700000000000000205e-02
6.725000000000000422e-02
2.122499999999999942e-01
8.799999999999999489e-02
9.324999999999999956e-02
8.799999999999999489e-02
1.397500000000000131e-01
1.034999999999999948e-01
7.249999999999999500e-02
6.725000000000000422e-02
6.725000000000000422e-02
8.275000000000000411e-02
3.469999999999999751e-01
6.732500000000000151e-01
1.295000000000000040e-01
1.140000000000000041e-01
7.774999999999999967e-02
8.799999999999999489e-02
6.725000000000000422e-02
5.700000000000000205e-02
5.174999999999999739e-02
7.249999999999999500e-02
8.275000000000000411e-02
6.725000000000000422e-02
1.812499999999999944e-01
7.774999999999999967e-02
8.799999999999999489e-02
6.725000000000000422e-02
7.774999999999999967e-02
9.324999999999999956e-02
9.324999999999999956e-02
6.224999999999999978e-02
1.192499999999999949e-01
7.774999999999999967e-02
1.449999999999999900e-01
8.799999999999999489e-02
4.150000000000000216e-02
6.224999999999999978e-02
9.850000000000000422e-02
8.275000000000000411e-02
6.725000000000000422e-02
4.649999999999999967e-02
6.725000000000000422e-02
1.502499999999999947e-01
1.657500000000000084e-01
1.192499999999999949e-01
7.249999999999999500e-02
2.642499999999999849e-01
8.799999999999999489e-02
1.034999999999999948e-01
1.397500000000000131e-01
6.224999999999999978e-02
5.174999999999999739e-02
6.224999999999999978e-02
8.275000000000000411e-02
7.249999999999999500e-02
9.324999999999999956e-02
8.799999999999999489e-02
7.774999999999999967e-02
5.700000000000000205e-02
5.700000000000000205e-02
4.649999999999999967e-02
5.700000000000000205e-02
5.174999999999999739e-02
5.174999999999999739e-02
5.174999999999999739e-02
7.774999999999999967e-02
8.799999999999999489e-02
6.224999999999999978e-02
5.700000000000000205e-02
8.275000000000000411e-02
7.249999999999999500e-02
4.150000000000000216e-02
5.174999999999999739e-02
5.700000000000000205e-02
5.174999999999999739e-02
5.174999999999999739e-02
5.174999999999999739e-02
5.700000000000000205e-02
6.725000000000000422e-02
6.224999999999999978e-02
6.725000000000000422e-02
7.249999999999999500e-02
6.224999999999999978e-02
4.150000000000000216e-02
6.224999999999999978e-02
7.774999999999999967e-02
5.700000000000000205e-02
4.649999999999999967e-02
7.774999999999999967e-02
2.072499999999999898e-01
1.087499999999999994e-01
8.799999999999999489e-02
7.774999999999999967e-02
1.192499999999999949e-01
1.242499999999999993e-01
6.725000000000000422e-02
6.725000000000000422e-02
4.649999999999999967e-02
6.725000000000000422e-02
2.072499999999999898e-01
1.347500000000000087e-01
9.324999999999999956e-02
7.249999999999999500e-02
9.850000000000000422e-02
1.242499999999999993e-01
1.295000000000000040e-01
1.140000000000000041e-01
9.850000000000000422e-02
1.034999999999999948e-01
8.275000000000000411e-02
1.140000000000000041e-01
1.812499999999999944e-01
8.275000000000000411e-02
8.275000000000000411e-02
8.275000000000000411e-02
1.759999999999999898e-01
6.725000000000000422e-02
6.224999999999999978e-02
7.249999999999999500e-02
6.224999999999999978e-02
7.774999999999999967e-02
5.174999999999999739e-02
7.774999999999999967e-02
9.850000000000000422e-02
5.700000000000000205e-02
3.212499999999999800e-01
1.087499999999999994e-01
9.324999999999999956e-02
1.605000000000000038e-01
8.799999999999999489e-02
8.799999999999999489e-02
6.725000000000000422e-02
7.774999999999999967e-02
6.224999999999999978e-02
1.397500000000000131e-01
1.449999999999999900e-01
6.725000000000000422e-02
1.140000000000000041e-01
7.249999999999999500e-02
7.774999999999999967e-02
1.034999999999999948e-01
9.324999999999999956e-02
9.850000000000000422e-02
6.224999999999999978e-02
1.449999999999999900e-01
9.324999999999999956e-02
7.249999999999999500e-02
7.249999999999999500e-02
9.324999999999999956e-02
9.324999999999999956e-02
7.774999999999999967e-02
7.249999999999999500e-02
8.799999999999999489e-02
5.700000000000000205e-02
6.725000000000000422e-02
5.700000000000000205e-02
1.347500000000000087e-01
1.967500000000000082e-01
1.140000000000000041e-01
5.174999999999999739e-02
1.397500000000000131e-01
4.649999999999999967e-02
6.725000000000000422e-02
4.649999999999999967e-02
6.224999999999999978e-02
3.624999999999999750e-02
6.725000000000000422e-02
6.224999999999999978e-02
8.275000000000000411e-02
9.324999999999999956e-02
9.850000000000000422e-02
1.087499999999999994e-01
8.275000000000000411e-02
6.725000000000000422e-02
8.275000000000000411e-02
7.774999999999999967e-02
6.725000000000000422e-02
1.087499999999999994e-01
7.249999999999999500e-02
9.850000000000000422e-02
6.725000000000000422e-02
6.725000000000000422e-02
7.249999999999999500e-02
5.174999999999999739e-02
7.249999999999999500e-02
1.502499999999999947e-01
1.034999999999999948e-01
7.249999999999999500e-02
7.249999999999999500e-02
6.725000000000000422e-02
6.725000000000000422e-02
3.099999999999999978e-02
6.725000000000000422e-02
4.150000000000000216e-02
6.224999999999999978e-02
8.799999999999999489e-02
5.174999999999999739e-02
7.249999999999999500e-02
6.224999999999999978e-02
5.174999999999999739e-02
5.174999999999999739e-02
8.275000000000000411e-02
5.174999999999999739e-02
6.224999999999999978e-02
5.174999999999999739e-02
5.174999999999999739e-02
6.224999999999999978e-02
7.249999999999999500e-02
1.087499999999999994e-01
1.087499999999999994e-01
8.275000000000000411e-02
6.224999999999999978e-02
8.799999999999999489e-02
5.174999999999999739e-02
7.774999999999999967e-02
8.275000000000000411e-02
5.700000000000000205e-02
5.174999999999999739e-02
5.700000000000000205e-02
8.275000000000000411e-02
5.174999999999999739e-02
8.275000000000000411e-02
5.174999999999999739e-02
5.700000000000000205e-02
5.174999999999999739e-02
1.034999999999999948e-01
7.249999999999999500e-02
5.700000000000000205e-02
6.224999999999999978e-02
7.774999999999999967e-02
7.249999999999999500e-02
8.799999999999999489e-02
5.700000000000000205e-02
9.324999999999999956e-02
8.799999999999999489e-02
9.850000000000000422e-02
6.224999999999999978e-02
7.249999999999999500e-02
6.725000000000000422e-02
3.624999999999999750e-02
6.725000000000000422e-02
6.224999999999999978e-02
8.799999999999999489e-02
1.397500000000000131e-01
6.224999999999999978e-02
4.150000000000000216e-02
6.725000000000000422e-02
1.034999999999999948e-01
5.174999999999999739e-02
7.774999999999999967e-02
4.150000000000000216e-02
5.174999999999999739e-02
6.725000000000000422e-02
1.554999999999999993e-01
2.020000000000000129e-01
1.140000000000000041e-01
4.649999999999999967e-02
6.725000000000000422e-02
4.649999999999999967e-02
6.725000000000000422e-02
5.700000000000000205e-02
6.725000000000000422e-02
6.725000000000000422e-02
6.224999999999999978e-02
5.700000000000000205e-02
5.700000000000000205e-02
7.249999999999999500e-02
8.275000000000000411e-02
8.799999999999999489e-02
6.725000000000000422e-02
7.249999999999999500e-02
5.700000000000000205e-02
6.725000000000000422e-02
9.850000000000000422e-02
6.224999999999999978e-02
6.725000000000000422e-02
5.700000000000000205e-02
5.174999999999999739e-02
8.799999999999999489e-02
6.725000000000000422e-02
6.224999999999999978e-02
4.150000000000000216e-02
6.224999999999999978e-02
7.249999999999999500e-02
5.174999999999999739e-02
7.249999999999999500e-02
7.774999999999999967e-02
8.275000000000000411e-02
6.725000000000000422e-02
1.397500000000000131e-01
6.725000000000000422e-02
5.174999999999999739e-02
5.700000000000000205e-02
5.700000000000000205e-02
5.174999999999999739e-02
6.224999999999999978e-02
7.774999999999999967e-02
7.249999999999999500e-02
7.774999999999999967e-02
1.034999999999999948e-01
6.725000000000000422e-02
5.174999999999999739e-02
5.700000000000000205e-02
7.249999999999999500e-02
4.150000000000000216e-02
5.174999999999999739e-02
7.249999999999999500e-02
4.150000000000000216e-02
1.087499999999999994e-01
8.275000000000000411e-02
9.850000000000000422e-02
7.249999999999999500e-02
7.774999999999999967e-02
4.649999999999999967e-02
4.150000000000000216e-02
5.700000000000000205e-02
7.774999999999999967e-02
6.224999999999999978e-02
5.700000000000000205e-02
6.725000000000000422e-02
7.249999999999999500e-02
6.725000000000000422e-02
5.700000000000000205e-02
5.174999999999999739e-02
9.850000000000000422e-02
1.034999999999999948e-01
6.224999999999999978e-02
6.224999999999999978e-02
6.224999999999999978e-02
5.700000000000000205e-02
6.224999999999999978e-02
5.700000000000000205e-02
5.174999999999999739e-02
6.725000000000000422e-02
1.087499999999999994e-01
2.330000000000000127e-01
7.774999999999999967e-02
9.850000000000000422e-02
7.249999999999999500e-02
6.224999999999999978e-02
5.700000000000000205e-02
6.224999999999999978e-02
5.700000000000000205e-02
5.700000000000000205e-02
5.700000000000000205e-02
5.700000000000000205e-02
5.700000000000000205e-02
9.850000000000000422e-02
5.700000000000000205e-02
5.174999999999999739e-02
6.224999999999999978e-02
8.275000000000000411e-02
4.649999999999999967e-02
4.649999999999999967e-02
6.224999999999999978e-02
4.150000000000000216e-02
8.275000000000000411e-02
4.150000000000000216e-02
5.700000000000000205e-02
6.725000000000000422e-02
9.850000000000000422e-02
8.799999999999999489e-02
6.224999999999999978e-02
7.249999999999999500e-02
9.850000000000000422e-02
9.324999999999999956e-02
6.725000000000000422e-02
7.249999999999999500e-02
1.449999999999999900e-01
6.725000000000000422e-02
1.192499999999999949e-01
5.700000000000000205e-02
6.725000000000000422e-02
6.725000000000000422e-02
1.242499999999999993e-01
7.249999999999999500e-02
5.174999999999999739e-02
9.850000000000000422e-02
1.034999999999999948e-01
1.242499999999999993e-01
5.700000000000000205e-02
7.774999999999999967e-02
7.774999999999999967e-02
6.224999999999999978e-02
7.249999999999999500e-02
6.224999999999999978e-02
1.192499999999999949e-01
1.034999999999999948e-01
7.249999999999999500e-02
1.449999999999999900e-01
7.249999999999999500e-02
8.275000000000000411e-02
8.275000000000000411e-02
8.275000000000000411e-02
5.174999999999999739e-02
7.249999999999999500e-02
6.224999999999999978e-02
7.774999999999999967e-02
6.224999999999999978e-02
7.774999999999999967e-02
6.224999999999999978e-02
6.725000000000000422e-02
7.249999999999999500e-02
4.150000000000000216e-02
5.174999999999999739e-02
8.799999999999999489e-02
4.649999999999999967e-02
5.174999999999999739e-02
7.249999999999999500e-02
5.174999999999999739e-02
5.174999999999999739e-02
6.224999999999999978e-02
5.174999999999999739e-02
1.295000000000000040e-01
7.774999999999999967e-02
7.774999999999999967e-02
8.275000000000000411e-02
9.324999999999999956e-02
1.759999999999999898e-01
2.072499999999999898e-01
1.502499999999999947e-01
6.725000000000000422e-02
6.725000000000000422e-02
4.649999999999999967e-02
4.649999999999999967e-02
6.725000000000000422e-02
8.275000000000000411e-02
9.850000000000000422e-02
4.150000000000000216e-02
7.249999999999999500e-02
5.174999999999999739e-02
4.150000000000000216e-02
4.150000000000000216e-02
5.700000000000000205e-02
5.700000000000000205e-02
7.774999999999999967e-02
7.774999999999999967e-02
8.275000000000000411e-02
6.725000000000000422e-02
1.759999999999999898e-01
5.700000000000000205e-02
8.799999999999999489e-02
7.774999999999999967e-02
5.700000000000000205e-02
4.150000000000000216e-02
4.150000000000000216e-02
5.700000000000000205e-02
5.174999999999999739e-02
6.224999999999999978e-02
7.249999999999999500e-02
4.150000000000000216e-02
7.774999999999999967e-02
6.725000000000000422e-02
9.324999999999999956e-02
9.324999999999999956e-02
7.774999999999999967e-02
6.224999999999999978e-02
7.249999999999999500e-02
4.649999999999999967e-02
4.150000000000000216e-02
6.725000000000000422e-02
6.224999999999999978e-02
9.324999999999999956e-02
7.774999999999999967e-02
6.224999999999999978e-02
9.850000000000000422e-02
9.324999999999999956e-02
5.700000000000000205e-02
8.799999999999999489e-02
5.174999999999999739e-02
6.224999999999999978e-02
5.174999999999999739e-02
8.799999999999999489e-02
4.649999999999999967e-02
5.700000000000000205e-02
5.700000000000000205e-02
4.150000000000000216e-02
8.799999999999999489e-02
1.192499999999999949e-01
6.725000000000000422e-02
5.700000000000000205e-02
4.649999999999999967e-02
7.774999999999999967e-02
4.150000000000000216e-02
5.174999999999999739e-02
6.725000000000000422e-02
6.224999999999999978e-02
7.249999999999999500e-02
4.150000000000000216e-02
7.249999999999999500e-02
5.700000000000000205e-02
9.324999999999999956e-02
7.249999999999999500e-02
5.700000000000000205e-02
6.224999999999999978e-02
9.324999999999999956e-02
7.249999999999999500e-02
5.700000000000000205e-02
5.174999999999999739e-02
6.725000000000000422e-02
6.224999999999999978e-02
6.224999999999999978e-02
5.700000000000000205e-02
6.224999999999999978e-02
7.249999999999999500e-02
6.725000000000000422e-02
5.700000000000000205e-02
6.224999999999999978e-02
7.249999999999999500e-02
7.249999999999999500e-02
8.275000000000000411e-02
8.275000000000000411e-02
5.174999999999999739e-02
5.174999999999999739e-02
8.799999999999999489e-02
7.774999999999999967e-02
6.224999999999999978e-02
8.275000000000000411e-02
6.224999999999999978e-02
6.725000000000000422e-02
6.224999999999999978e-02
6.725000000000000422e-02
5.700000000000000205e-02
5.700000000000000205e-02
7.774999999999999967e-02
1.347500000000000087e-01
1.967500000000000082e-01
9.324999999999999956e-02
1.605000000000000038e-01
9.850000000000000422e-02
4.150000000000000216e-02
6.224999999999999978e-02
7.249999999999999500e-02
8.275000000000000411e-02
5.700000000000000205e-02
6.224999999999999978e-02
1.034999999999999948e-01
2.590000000000000080e-01
1.347500000000000087e-01
1.140000000000000041e-01
8.275000000000000411e-02
6.224999999999999978e-02
1.554999999999999993e-01
7.774999999999999967e-02
1.347500000000000087e-01
1.864999999999999991e-01
2.382499999999999896e-01
6.784999999999999920e-01
1.967500000000000082e-01
7.774999999999999967e-02
1.087499999999999994e-01
1.087499999999999994e-01
8.799999999999999489e-02
1.295000000000000040e-01
1.034999999999999948e-01
1.295000000000000040e-01
6.725000000000000422e-02
1.242499999999999993e-01
1.034999999999999948e-01
1.034999999999999948e-01
8.799999999999999489e-02
1.502499999999999947e-01
8.799999999999999489e-02
1.502499999999999947e-01
5.594999999999999973e-01
2.797499999999999987e-01
2.227500000000000036e-01
1.554999999999999993e-01
1.917500000000000038e-01
1.554999999999999993e-01
1.295000000000000040e-01
1.087499999999999994e-01
1.295000000000000040e-01
8.275000000000000411e-02
1.397500000000000131e-01
1.192499999999999949e-01
1.347500000000000087e-01
1.502499999999999947e-01
6.725000000000000422e-02
1.502499999999999947e-01
5.127500000000000391e-01
5.437499999999999556e-01
2.434999999999999942e-01
2.745000000000000218e-01
1.502499999999999947e-01
2.434999999999999942e-01
1.605000000000000038e-01
1.192499999999999949e-01
2.020000000000000129e-01
3.004999999999999893e-01
1.242499999999999993e-01
1.087499999999999994e-01
1.192499999999999949e-01
8.275000000000000411e-02
2.590000000000000080e-01
1.397500000000000131e-01
4.505000000000000115e-01
1.092999999999999972e+00
9.789999999999999813e-01
9.737500000000000044e-01
3.729999999999999982e-01
3.522500000000000075e-01
4.972500000000000253e-01
6.732500000000000151e-01
4.712500000000000022e-01
5.697499999999999787e-01
3.212499999999999800e-01
3.160000000000000031e-01
8.702499999999999680e-01
8.960000000000000187e-01
2.590000000000000080e-01
9.839999999999999858e-01
5.645000000000000018e-01
3.004999999999999893e-01
6.992500000000000382e-01
7.977499999999999591e-01
7.302499999999999547e-01
3.469999999999999751e-01
3.832499999999999796e-01
3.574999999999999845e-01
5.334999999999999742e-01
3.262499999999999845e-01
5.127500000000000391e-01
7.095000000000000195e-01
6.007500000000000062e-01
4.247500000000000164e-01
1.710000000000000131e-01
3.937499999999999889e-01
4.247500000000000164e-01
4.869999999999999885e-01
2.072499999999999898e-01
1.812499999999999944e-01
1.605000000000000038e-01
2.280000000000000082e-01
2.434999999999999942e-01
3.885000000000000120e-01
2.382499999999999896e-01
2.227500000000000036e-01
2.072499999999999898e-01
1.657500000000000084e-01
1.347500000000000087e-01
-3.533500000000000085e+00
-1.669000000000000039e+00
-8.153750000000000497e+00
6.500250000000000306e+00
4.764999999999999791e-01
-4.341499999999999915e+00
1.362249999999999961e+00
1.967500000000000082e-01
2.122499999999999942e-01
-3.720000000000000195e+00
-2.367999999999999883e+00
5.376500000000000057e+00
1.917500000000000038e-01
1.347500000000000087e-01
2.849999999999999756e-01
1.449999999999999900e-01
1.605000000000000038e-01
2.692499999999999893e-01
4.764999999999999791e-01
1.905999999999999917e+00
1.957750000000000101e+00
2.642499999999999849e-01
9.850000000000000422e-02
1.973500000000000032e+00
2.118500000000000050e+00
-5.967500000000000027e-01
6.438250000000000028e+00
3.107500000000000262e-01
2.227500000000000036e-01
1.347500000000000087e-01
1.759999999999999898e-01
2.020000000000000129e-01
2.590000000000000080e-01
1.917500000000000038e-01
2.899999999999999800e-01
3.054999999999999938e-01
2.642499999999999849e-01
3.315000000000000169e-01
2.227500000000000036e-01
1.449999999999999900e-01
2.590000000000000080e-01
2.590000000000000080e-01
1.554999999999999993e-01
1.759999999999999898e-01
1.192499999999999949e-01
7.774999999999999967e-02
1.554999999999999993e-01
1.087499999999999994e-01
1.605000000000000038e-01
1.397500000000000131e-01
1.087499999999999994e-01
8.799999999999999489e-02
1.657500000000000084e-01
1.034999999999999948e-01
1.605000000000000038e-01
7.249999999999999500e-02
2.849999999999999756e-01
1.449999999999999900e-01
9.850000000000000422e-02
1.917500000000000038e-01
1.192499999999999949e-01
1.864999999999999991e-01
1.605000000000000038e-01
6.725000000000000422e-02
2.330000000000000127e-01
7.249999999999999500e-02
8.799999999999999489e-02
7.774999999999999967e-02
5.700000000000000205e-02
9.850000000000000422e-02
2.174999999999999989e-01
2.174999999999999989e-01
7.774999999999999967e-02
2.174999999999999989e-01
1.295000000000000040e-01
1.864999999999999991e-01
1.502499999999999947e-01
1.347500000000000087e-01
1.242499999999999993e-01
1.554999999999999993e-01
1.864999999999999991e-01
1.605000000000000038e-01
1.554999999999999993e-01
1.397500000000000131e-01
1.864999999999999991e-01
2.330000000000000127e-01
1.864999999999999991e-01
2.484999999999999987e-01
1.917500000000000038e-01
2.174999999999999989e-01
2.484999999999999987e-01
2.280000000000000082e-01
1.812499999999999944e-01
1.864999999999999991e-01
3.107500000000000262e-01
1.759999999999999898e-01
1.759999999999999898e-01
2.484999999999999987e-01
3.832499999999999796e-01
3.832499999999999796e-01
3.832499999999999796e-01
2.642499999999999849e-01
2.072499999999999898e-01
3.780000000000000027e-01
5.127500000000000391e-01
2.849999999999999756e-01
3.212499999999999800e-01
2.692499999999999893e-01
3.780000000000000027e-01
3.054999999999999938e-01
6.577499999999999458e-01
5.799999999999999600e-01
5.594999999999999973e-01
3.937499999999999889e-01
3.624999999999999889e-01
7.407500000000000195e-01
3.469999999999999751e-01
4.247500000000000164e-01
2.280000000000000082e-01
2.122499999999999942e-01
1.864999999999999991e-01
1.759999999999999898e-01
1.967500000000000082e-01
1.605000000000000038e-01
1.812499999999999944e-01
1.710000000000000131e-01
3.417499999999999982e-01
1.967500000000000082e-01
1.917500000000000038e-01
2.849999999999999756e-01
1.657500000000000084e-01
3.832499999999999796e-01
2.797499999999999987e-01
2.382499999999999896e-01
4.194999999999999840e-01
5.232499999999999929e-01
6.732500000000000151e-01
2.642499999999999849e-01
1.812499999999999944e-01
1.449999999999999900e-01
1.242499999999999993e-01
2.330000000000000127e-01
1.657500000000000084e-01
1.449999999999999900e-01
9.324999999999999956e-02
2.174999999999999989e-01
2.174999999999999989e-01
1.657500000000000084e-01
6.725000000000000422e-02
1.710000000000000131e-01
7.774999999999999967e-02
1.140000000000000041e-01
1.502499999999999947e-01
1.657500000000000084e-01
7.249999999999999500e-02
7.774999999999999967e-02
6.725000000000000422e-02
2.692499999999999893e-01
1.140000000000000041e-01
5.174999999999999739e-02
5.174999999999999739e-02
7.249999999999999500e-02
6.224999999999999978e-02
8.799999999999999489e-02
1.034999999999999948e-01
5.700000000000000205e-02
5.174999999999999739e-02
5.700000000000000205e-02
5.174999999999999739e-02
4.150000000000000216e-02
4.649999999999999967e-02
4.150000000000000216e-02
3.099999999999999978e-02
7.249999999999999500e-02
7.774999999999999967e-02
6.725000000000000422e-02
8.275000000000000411e-02
7.249999999999999500e-02
7.249999999999999500e-02
4.649999999999999967e-02
3.624999999999999750e-02
4.649999999999999967e-02
6.725000000000000422e-02
7.249999999999999500e-02
7.249999999999999500e-02
7.774999999999999967e-02
9.850000000000000422e-02
8.275000000000000411e-02
5.700000000000000205e-02
5.174999999999999739e-02
5.174999999999999739e-02
5.700000000000000205e-02
5.174999999999999739e-02
6.725000000000000422e-02
5.700000000000000205e-02
5.174999999999999739e-02
5.174999999999999739e-02
4.649999999999999967e-02
3.624999999999999750e-02
7.249999999999999500e-02
6.224999999999999978e-02
4.649999999999999967e-02
4.649999999999999967e-02
7.249999999999999500e-02
5.700000000000000205e-02
4.649999999999999967e-02
6.224999999999999978e-02
4.649999999999999967e-02
8.275000000000000411e-02
4.150000000000000216e-02
5.700000000000000205e-02
7.249999999999999500e-02
4.150000000000000216e-02
1.242499999999999993e-01
9.324999999999999956e-02
5.700000000000000205e-02
6.224999999999999978e-02
6.725000000000000422e-02
5.174999999999999739e-02
8.275000000000000411e-02
8.799999999999999489e-02
5.174999999999999739e-02
1.034999999999999948e-01
4.150000000000000216e-02
4.649999999999999967e-02
6.725000000000000422e-02
1.034999999999999948e-01
6.725000000000000422e-02
9.850000000000000422e-02
8.275000000000000411e-02
1.812499999999999944e-01
6.725000000000000422e-02
5.700000000000000205e-02
7.249999999999999500e-02
7.249999999999999500e-02
1.087499999999999994e-01
4.150000000000000216e-02
8.275000000000000411e-02
1.087499999999999994e-01
7.774999999999999967e-02
1.242499999999999993e-01
6.725000000000000422e-02
5.174999999999999739e-02
6.725000000000000422e-02
6.224999999999999978e-02
6.725000000000000422e-02
5.174999999999999739e-02
6.224999999999999978e-02
4.649999999999999967e-02
5.700000000000000205e-02
7.249999999999999500e-02
8.799999999999999489e-02
8.799999999999999489e-02
8.275000000000000411e-02
6.725000000000000422e-02
5.174999999999999739e-02
5.700000000000000205e-02
8.275000000000000411e-02
7.774999999999999967e-02
1.034999999999999948e-01
1.295000000000000040e-01
7.774999999999999967e-02
7.774999999999999967e-02
7.249999999999999500e-02
6.725000000000000422e-02
1.554999999999999993e-01
1.295000000000000040e-01
6.725000000000000422e-02
7.249999999999999500e-02
5.700000000000000205e-02
1.140000000000000041e-01
5.174999999999999739e-02
6.224999999999999978e-02
4.649999999999999967e-02
8.799999999999999489e-02
6.224999999999999978e-02
1.242499999999999993e-01
1.502499999999999947e-01
9.850000000000000422e-02
9.324999999999999956e-02
6.224999999999999978e-02
5.700000000000000205e-02
1.087499999999999994e-01
1.242499999999999993e-01
5.700000000000000205e-02
7.774999999999999967e-02
1.605000000000000038e-01
9.850000000000000422e-02
1.967500000000000082e-01
1.295000000000000040e-01
1.967500000000000082e-01
1.295000000000000040e-01
9.850000000000000422e-02
1.502499999999999947e-01
9.850000000000000422e-02
1.864999999999999991e-01
5.700000000000000205e-02
9.324999999999999956e-02
4.649999999999999967e-02
1.917500000000000038e-01
3.987499999999999933e-01
2.692499999999999893e-01
2.899999999999999800e-01
1.140000000000000041e-01
2.434999999999999942e-01
1.554999999999999993e-01
2.280000000000000082e-01
1.759999999999999898e-01
1.087499999999999994e-01
1.087499999999999994e-01
2.227500000000000036e-01
1.140000000000000041e-01
8.275000000000000411e-02
2.484999999999999987e-01
1.192499999999999949e-01
1.710000000000000131e-01
1.397500000000000131e-01
1.759999999999999898e-01
2.330000000000000127e-01
1.397500000000000131e-01
1.967500000000000082e-01
1.812499999999999944e-01
7.774999999999999967e-02
8.799999999999999489e-02
1.759999999999999898e-01
7.774999999999999967e-02
5.700000000000000205e-02
8.799999999999999489e-02
1.554999999999999993e-01
1.192499999999999949e-01
8.799999999999999489e-02
2.330000000000000127e-01
1.605000000000000038e-01
8.799999999999999489e-02
1.967500000000000082e-01
6.224999999999999978e-02
5.700000000000000205e-02
1.967500000000000082e-01
1.812499999999999944e-01
1.502499999999999947e-01
7.774999999999999967e-02
8.799999999999999489e-02
2.899999999999999800e-01
9.850000000000000422e-02
1.502499999999999947e-01
1.812499999999999944e-01
2.072499999999999898e-01
1.710000000000000131e-01
1.449999999999999900e-01
2.434999999999999942e-01
1.710000000000000131e-01
3.315000000000000169e-01
1.917500000000000038e-01
2.484999999999999987e-01
2.642499999999999849e-01
2.537499999999999756e-01
1.967500000000000082e-01
1.397500000000000131e-01
2.174999999999999989e-01
3.004999999999999893e-01
1.812499999999999944e-01
1.554999999999999993e-01
1.605000000000000038e-01
2.484999999999999987e-01
2.382499999999999896e-01
2.227500000000000036e-01
1.192499999999999949e-01
1.812499999999999944e-01
1.710000000000000131e-01
2.330000000000000127e-01
1.192499999999999949e-01
1.347500000000000087e-01
2.745000000000000218e-01
2.849999999999999756e-01
2.382499999999999896e-01
2.122499999999999942e-01
1.657500000000000084e-01
1.967500000000000082e-01
1.657500000000000084e-01
2.484999999999999987e-01
2.642499999999999849e-01
2.280000000000000082e-01
2.952500000000000124e-01
3.987499999999999933e-01
2.020000000000000129e-01
1.449999999999999900e-01
1.242499999999999993e-01
1.295000000000000040e-01
2.642499999999999849e-01
1.917500000000000038e-01
2.797499999999999987e-01
1.242499999999999993e-01
2.382499999999999896e-01
1.710000000000000131e-01
1.812499999999999944e-01
2.174999999999999989e-01
1.864999999999999991e-01
1.917500000000000038e-01
2.020000000000000129e-01
1.864999999999999991e-01
1.812499999999999944e-01
2.122499999999999942e-01
1.347500000000000087e-01
1.864999999999999991e-01
2.330000000000000127e-01
1.812499999999999944e-01
1.295000000000000040e-01
1.710000000000000131e-01
2.122499999999999942e-01
1.347500000000000087e-01
2.174999999999999989e-01
2.020000000000000129e-01
2.227500000000000036e-01
2.330000000000000127e-01
2.537499999999999756e-01
1.759999999999999898e-01
3.469999999999999751e-01
2.280000000000000082e-01
1.397500000000000131e-01
3.107500000000000262e-01
2.382499999999999896e-01
2.899999999999999800e-01
1.397500000000000131e-01
1.087499999999999994e-01
1.554999999999999993e-01
1.917500000000000038e-01
1.502499999999999947e-01
1.710000000000000131e-01
1.710000000000000131e-01
1.295000000000000040e-01
1.657500000000000084e-01
1.710000000000000131e-01
1.397500000000000131e-01
3.054999999999999938e-01
8.799999999999999489e-02
1.812499999999999944e-01
1.554999999999999993e-01
2.330000000000000127e-01
1.502499999999999947e-01
2.020000000000000129e-01
2.174999999999999989e-01
1.657500000000000084e-01
2.227500000000000036e-01
1.554999999999999993e-01
1.917500000000000038e-01
2.280000000000000082e-01
9.324999999999999956e-02
2.797499999999999987e-01
1.554999999999999993e-01
2.174999999999999989e-01
2.434999999999999942e-01
2.382499999999999896e-01
2.280000000000000082e-01
2.537499999999999756e-01
2.072499999999999898e-01
1.502499999999999947e-01
3.574999999999999845e-01
3.729999999999999982e-01
2.952500000000000124e-01
6.267500000000000293e-01
4.712500000000000022e-01
6.007500000000000062e-01
1.967500000000000082e-01
6.992500000000000382e-01
5.957500000000000018e-01
2.484999999999999987e-01
5.905000000000000249e-01
6.474999999999999645e-01
2.330750000000000099e+00
5.074999999999999512e-01
4.610000000000000209e-01
8.495000000000000329e-01
1.408749999999999947e+00
1.258750000000000036e+00
1.020250000000000101e+00
1.129250000000000087e+00
1.170500000000000096e+00
6.474999999999999645e-01
8.339999999999999636e-01
5.282499999999999973e-01
7.717500000000000471e-01
1.429499999999999993e+00
8.857500000000000373e-01
8.547500000000000098e-01
1.004750000000000032e+00
1.030750000000000055e+00
8.597500000000000142e-01
8.857500000000000373e-01
7.510000000000000009e-01
9.427499999999999769e-01
9.064999999999999725e-01
7.562499999999999778e-01
8.442499999999999449e-01
7.095000000000000195e-01
7.199999999999999734e-01
9.064999999999999725e-01
7.302499999999999547e-01
9.997500000000000275e-01
5.387499999999999512e-01
9.322500000000000231e-01
1.185999999999999943e+00
6.837499999999999689e-01
1.056750000000000078e+00
1.056750000000000078e+00
7.770000000000000240e-01
4.194999999999999840e-01
7.252499999999999503e-01
9.477499999999999813e-01
8.910000000000000142e-01
8.287499999999999867e-01
6.577499999999999458e-01
7.095000000000000195e-01
6.267500000000000293e-01
7.977499999999999591e-01
8.339999999999999636e-01
1.196499999999999897e+00
7.977499999999999591e-01
5.594999999999999973e-01
9.839999999999999858e-01
9.945000000000000506e-01
7.872500000000000053e-01
6.162499999999999645e-01
7.302499999999999547e-01
4.817500000000000115e-01
5.127500000000000391e-01
8.547500000000000098e-01
7.302499999999999547e-01
7.199999999999999734e-01
2.642499999999999849e-01
7.872500000000000053e-01
7.717500000000000471e-01
1.051500000000000101e+00
9.064999999999999725e-01
2.849999999999999756e-01
3.367499999999999938e-01
2.797499999999999987e-01
1.046249999999999902e+00
3.212499999999999800e-01
4.349999999999999978e-01
4.610000000000000209e-01
2.642499999999999849e-01
3.574999999999999845e-01
4.299999999999999933e-01
3.367499999999999938e-01
5.697499999999999787e-01
4.972500000000000253e-01
5.697499999999999787e-01
4.972500000000000253e-01
5.594999999999999973e-01
8.132500000000000284e-01
3.522500000000000075e-01
5.594999999999999973e-01
3.624999999999999889e-01
3.677500000000000213e-01
3.469999999999999751e-01
3.677500000000000213e-01
3.004999999999999893e-01
6.112499999999999600e-01
3.677500000000000213e-01
2.797499999999999987e-01
2.899999999999999800e-01
2.849999999999999756e-01
5.232499999999999929e-01
5.387499999999999512e-01
3.054999999999999938e-01
2.692499999999999893e-01
3.987499999999999933e-01
3.107500000000000262e-01
2.382499999999999896e-01
4.817500000000000115e-01
5.542500000000000204e-01
3.937499999999999889e-01
4.040000000000000258e-01
3.054999999999999938e-01
4.869999999999999885e-01
5.180000000000000160e-01
6.370000000000000107e-01
3.624999999999999889e-01
4.247500000000000164e-01
7.457500000000000240e-01
4.402499999999999747e-01
3.262499999999999845e-01
2.642499999999999849e-01
3.832499999999999796e-01
7.095000000000000195e-01
9.272500000000000187e-01
3.469999999999999751e-01
2.330000000000000127e-01
4.712500000000000022e-01
4.505000000000000115e-01
3.160000000000000031e-01
3.315000000000000169e-01
4.040000000000000258e-01
3.574999999999999845e-01
3.107500000000000262e-01
4.299999999999999933e-01
4.972500000000000253e-01
3.367499999999999938e-01
3.987499999999999933e-01
2.227500000000000036e-01
3.677500000000000213e-01
2.692499999999999893e-01
4.092500000000000027e-01
2.330000000000000127e-01
3.677500000000000213e-01
2.020000000000000129e-01
4.194999999999999840e-01
3.107500000000000262e-01
3.677500000000000213e-01
3.367499999999999938e-01
5.334999999999999742e-01
4.662499999999999978e-01
5.490000000000000435e-01
3.315000000000000169e-01
4.610000000000000209e-01
3.780000000000000027e-01
3.885000000000000120e-01
4.040000000000000258e-01
5.180000000000000160e-01
3.367499999999999938e-01
3.262499999999999845e-01
2.330000000000000127e-01
3.262499999999999845e-01
3.367499999999999938e-01
3.004999999999999893e-01
2.899999999999999800e-01
3.522500000000000075e-01
3.212499999999999800e-01
2.642499999999999849e-01
3.624999999999999889e-01
4.557499999999999885e-01
2.692499999999999893e-01
2.797499999999999987e-01
4.299999999999999933e-01
2.692499999999999893e-01
4.455000000000000071e-01
4.194999999999999840e-01
3.885000000000000120e-01
3.107500000000000262e-01
9.850000000000000422e-02
2.745000000000000218e-01
2.072499999999999898e-01
1.864999999999999991e-01
2.590000000000000080e-01
3.315000000000000169e-01
3.262499999999999845e-01
2.642499999999999849e-01
1.759999999999999898e-01
3.054999999999999938e-01
2.382499999999999896e-01
3.780000000000000027e-01
2.330000000000000127e-01
2.899999999999999800e-01
3.107500000000000262e-01
3.262499999999999845e-01
2.692499999999999893e-01
3.315000000000000169e-01
3.160000000000000031e-01
6.112499999999999600e-01
3.987499999999999933e-01
2.899999999999999800e-01
2.797499999999999987e-01
3.054999999999999938e-01
3.937499999999999889e-01
3.212499999999999800e-01
2.590000000000000080e-01
5.957500000000000018e-01
2.072499999999999898e-01
2.434999999999999942e-01
2.280000000000000082e-01
3.574999999999999845e-01
2.227500000000000036e-01
4.402499999999999747e-01
3.469999999999999751e-01
3.522500000000000075e-01
5.387499999999999512e-01
3.054999999999999938e-01
5.490000000000000435e-01
4.194999999999999840e-01
2.692499999999999893e-01
2.382499999999999896e-01
2.174999999999999989e-01
2.174999999999999989e-01
2.590000000000000080e-01
2.537499999999999756e-01
2.745000000000000218e-01
3.624999999999999889e-01
3.160000000000000031e-01
3.212499999999999800e-01
2.072499999999999898e-01
3.107500000000000262e-01
2.590000000000000080e-01
1.192499999999999949e-01
2.382499999999999896e-01
1.917500000000000038e-01
2.849999999999999756e-01
4.142500000000000071e-01
3.054999999999999938e-01
3.054999999999999938e-01
3.054999999999999938e-01
1.917500000000000038e-01
1.812499999999999944e-01
2.484999999999999987e-01
2.484999999999999987e-01
1.759999999999999898e-01
2.590000000000000080e-01
1.449999999999999900e-01
1.917500000000000038e-01
2.692499999999999893e-01
2.020000000000000129e-01
2.280000000000000082e-01
2.280000000000000082e-01
2.020000000000000129e-01
2.484999999999999987e-01
2.537499999999999756e-01
4.092500000000000027e-01
4.092500000000000027e-01
3.367499999999999938e-01
3.315000000000000169e-01
4.662499999999999978e-01
3.885000000000000120e-01
4.919999999999999929e-01
3.574999999999999845e-01
3.937499999999999889e-01
2.590000000000000080e-01
2.174999999999999989e-01
2.434999999999999942e-01
2.280000000000000082e-01
3.160000000000000031e-01
1.397500000000000131e-01
1.864999999999999991e-01
8.275000000000000411e-02
1.192499999999999949e-01
8.799999999999999489e-02
8.275000000000000411e-02
7.774999999999999967e-02
1.759999999999999898e-01
1.242499999999999993e-01
1.295000000000000040e-01
1.502499999999999947e-01
7.774999999999999967e-02
7.774999999999999967e-02
1.397500000000000131e-01
1.917500000000000038e-01
2.227500000000000036e-01
2.849999999999999756e-01
8.799999999999999489e-02
1.605000000000000038e-01
1.554999999999999993e-01
1.397500000000000131e-01
2.330000000000000127e-01
1.397500000000000131e-01
1.657500000000000084e-01
1.242499999999999993e-01
2.330000000000000127e-01
1.140000000000000041e-01
1.347500000000000087e-01
8.275000000000000411e-02
1.657500000000000084e-01
8.799999999999999489e-02
7.249999999999999500e-02
1.502499999999999947e-01
6.725000000000000422e-02
9.324999999999999956e-02
1.034999999999999948e-01
7.249999999999999500e-02
1.140000000000000041e-01
7.249999999999999500e-02
1.242499999999999993e-01
8.799999999999999489e-02
6.725000000000000422e-02
7.774999999999999967e-02
4.649999999999999967e-02
8.275000000000000411e-02
2.020000000000000129e-01
1.710000000000000131e-01
1.967500000000000082e-01
5.700000000000000205e-02
7.774999999999999967e-02
9.324999999999999956e-02
7.774999999999999967e-02
1.087499999999999994e-01
8.275000000000000411e-02
5.700000000000000205e-02
6.725000000000000422e-02
8.799999999999999489e-02
7.774999999999999967e-02
9.324999999999999956e-02
1.087499999999999994e-01
7.249999999999999500e-02
6.224999999999999978e-02
6.725000000000000422e-02
8.275000000000000411e-02
8.275000000000000411e-02
1.034999999999999948e-01
1.242499999999999993e-01
7.774999999999999967e-02
6.725000000000000422e-02
9.324999999999999956e-02
8.275000000000000411e-02
6.725000000000000422e-02
7.774999999999999967e-02
8.799999999999999489e-02
5.700000000000000205e-02
1.034999999999999948e-01
1.397500000000000131e-01
7.774999999999999967e-02
7.774999999999999967e-02
7.249999999999999500e-02
5.700000000000000205e-02
6.725000000000000422e-02
6.224999999999999978e-02
5.700000000000000205e-02
7.249999999999999500e-02
8.799999999999999489e-02
1.087499999999999994e-01
6.725000000000000422e-02
7.249999999999999500e-02
5.174999999999999739e-02
5.700000000000000205e-02
8.799999999999999489e-02
8.275000000000000411e-02
4.150000000000000216e-02
5.700000000000000205e-02
4.649999999999999967e-02
6.224999999999999978e-02
7.249999999999999500e-02
4.649999999999999967e-02
7.249999999999999500e-02
6.224999999999999978e-02
4.649999999999999967e-02
6.224999999999999978e-02
1.140000000000000041e-01
1.087499999999999994e-01
5.174999999999999739e-02
6.725000000000000422e-02
1.295000000000000040e-01
9.324999999999999956e-02
8.799999999999999489e-02
7.249999999999999500e-02
8.275000000000000411e-02
6.725000000000000422e-02
5.174999999999999739e-02
1.449999999999999900e-01
7.249999999999999500e-02
9.850000000000000422e-02
5.700000000000000205e-02
1.140000000000000041e-01
8.799999999999999489e-02
1.140000000000000041e-01
9.850000000000000422e-02
1.034999999999999948e-01
4.150000000000000216e-02
1.192499999999999949e-01
5.174999999999999739e-02
7.774999999999999967e-02
1.295000000000000040e-01
6.725000000000000422e-02
1.605000000000000038e-01
1.025500000000000078e+00
2.590000000000000080e-01
1.502499999999999947e-01
8.799999999999999489e-02
1.502499999999999947e-01
2.484999999999999987e-01
1.710000000000000131e-01
1.967500000000000082e-01
1.295000000000000040e-01
1.242499999999999993e-01
1.812499999999999944e-01
1.397500000000000131e-01
2.020000000000000129e-01
1.710000000000000131e-01
1.140000000000000041e-01
1.397500000000000131e-01
1.917500000000000038e-01
1.759999999999999898e-01
1.502499999999999947e-01
1.657500000000000084e-01
3.367499999999999938e-01
9.850000000000000422e-02
1.192499999999999949e-01
1.657500000000000084e-01
1.347500000000000087e-01
8.799999999999999489e-02
1.812499999999999944e-01
1.242499999999999993e-01
1.967500000000000082e-01
1.554999999999999993e-01
1.397500000000000131e-01
1.917500000000000038e-01
1.917500000000000038e-01
3.160000000000000031e-01
1.192499999999999949e-01
2.227500000000000036e-01
1.657500000000000084e-01
1.502499999999999947e-01
2.122499999999999942e-01
1.759999999999999898e-01
1.295000000000000040e-01
1.295000000000000040e-01
2.072499999999999898e-01
1.034999999999999948e-01
2.745000000000000218e-01
1.657500000000000084e-01
2.537499999999999756e-01
8.799999999999999489e-02
1.087499999999999994e-01
1.087499999999999994e-01
8.799999999999999489e-02
2.280000000000000082e-01
1.397500000000000131e-01
1.605000000000000038e-01
1.140000000000000041e-01
1.347500000000000087e-01
1.295000000000000040e-01
1.967500000000000082e-01
1.295000000000000040e-01
2.020000000000000129e-01
2.382499999999999896e-01
1.812499999999999944e-01
1.864999999999999991e-01
3.107500000000000262e-01
3.262499999999999845e-01
3.367499999999999938e-01
2.382499999999999896e-01
3.212499999999999800e-01
1.864999999999999991e-01
2.484999999999999987e-01
1.605000000000000038e-01
2.849999999999999756e-01
2.330000000000000127e-01
5.542500000000000204e-01
2.382499999999999896e-01
2.745000000000000218e-01
2.745000000000000218e-01
2.227500000000000036e-01
3.417499999999999982e-01
1.812499999999999944e-01
2.434999999999999942e-01
1.967500000000000082e-01
2.072499999999999898e-01
1.812499999999999944e-01
3.212499999999999800e-01
1.657500000000000084e-01
3.262499999999999845e-01
2.952500000000000124e-01
1.397500000000000131e-01
2.797499999999999987e-01
2.382499999999999896e-01
1.759999999999999898e-01
2.434999999999999942e-01
1.449999999999999900e-01
2.642499999999999849e-01
1.502499999999999947e-01
1.657500000000000084e-01
1.812499999999999944e-01
2.072499999999999898e-01
1.295000000000000040e-01
1.657500000000000084e-01
2.072499999999999898e-01
1.967500000000000082e-01
1.657500000000000084e-01
2.484999999999999987e-01
2.020000000000000129e-01
1.347500000000000087e-01
1.502499999999999947e-01
2.382499999999999896e-01
1.605000000000000038e-01
2.174999999999999989e-01
1.242499999999999993e-01
9.324999999999999956e-02
1.034999999999999948e-01
1.605000000000000038e-01
1.759999999999999898e-01
2.174999999999999989e-01
3.054999999999999938e-01
1.554999999999999993e-01
2.072499999999999898e-01
2.072499999999999898e-01
1.967500000000000082e-01
1.449999999999999900e-01
1.192499999999999949e-01
2.952500000000000124e-01
2.227500000000000036e-01
1.657500000000000084e-01
1.449999999999999900e-01
1.295000000000000040e-01
1.812499999999999944e-01
2.227500000000000036e-01
3.004999999999999893e-01
2.484999999999999987e-01
2.174999999999999989e-01
1.967500000000000082e-01
2.072499999999999898e-01
2.174999999999999989e-01
1.242499999999999993e-01
1.502499999999999947e-01
1.397500000000000131e-01
1.347500000000000087e-01
1.295000000000000040e-01
1.397500000000000131e-01
1.087499999999999994e-01
1.397500000000000131e-01
1.295000000000000040e-01
2.227500000000000036e-01
1.397500000000000131e-01
1.397500000000000131e-01
1.710000000000000131e-01
1.502499999999999947e-01
1.657500000000000084e-01
2.330000000000000127e-01
1.967500000000000082e-01
3.677500000000000213e-01
2.330000000000000127e-01
2.020000000000000129e-01
3.160000000000000031e-01
1.605000000000000038e-01
3.054999999999999938e-01
3.417499999999999982e-01
3.054999999999999938e-01
1.347500000000000087e-01
2.227500000000000036e-01
3.315000000000000169e-01
1.087499999999999994e-01
2.382499999999999896e-01
1.967500000000000082e-01
2.174999999999999989e-01
1.449999999999999900e-01
1.967500000000000082e-01
2.692499999999999893e-01
1.864999999999999991e-01
2.899999999999999800e-01
1.657500000000000084e-01
2.020000000000000129e-01
1.917500000000000038e-01
1.812499999999999944e-01
1.917500000000000038e-01
1.502499999999999947e-01
2.122499999999999942e-01
2.280000000000000082e-01
1.449999999999999900e-01
1.554999999999999993e-01
2.382499999999999896e-01
1.759999999999999898e-01
1.397500000000000131e-01
1.812499999999999944e-01
1.502499999999999947e-01
1.967500000000000082e-01
2.072499999999999898e-01
1.759999999999999898e-01
1.657500000000000084e-01
1.347500000000000087e-01
1.449999999999999900e-01
3.004999999999999893e-01
2.952500000000000124e-01
1.554999999999999993e-01
1.554999999999999993e-01
2.227500000000000036e-01
2.590000000000000080e-01
1.397500000000000131e-01
2.382499999999999896e-01
2.330000000000000127e-01
1.554999999999999993e-01
2.122499999999999942e-01
2.227500000000000036e-01
2.330000000000000127e-01
2.849999999999999756e-01
1.397500000000000131e-01
2.122499999999999942e-01
2.072499999999999898e-01
3.004999999999999893e-01
2.899999999999999800e-01
1.967500000000000082e-01
1.967500000000000082e-01
2.382499999999999896e-01
2.484999999999999987e-01
2.692499999999999893e-01
2.434999999999999942e-01
2.537499999999999756e-01
2.484999999999999987e-01
1.605000000000000038e-01
2.072499999999999898e-01
2.642499999999999849e-01
2.899999999999999800e-01
4.610000000000000209e-01
2.020000000000000129e-01
2.590000000000000080e-01
1.605000000000000038e-01
2.590000000000000080e-01
1.967500000000000082e-01
2.122499999999999942e-01
1.967500000000000082e-01
1.710000000000000131e-01
3.315000000000000169e-01
3.522500000000000075e-01
2.174999999999999989e-01
2.174999999999999989e-01
1.759999999999999898e-01
2.849999999999999756e-01
2.745000000000000218e-01
3.987499999999999933e-01
2.330000000000000127e-01
3.054999999999999938e-01
2.745000000000000218e-01
1.657500000000000084e-01
2.330000000000000127e-01
2.537499999999999756e-01
1.967500000000000082e-01
2.330000000000000127e-01
2.692499999999999893e-01
2.590000000000000080e-01
2.122499999999999942e-01
1.864999999999999991e-01
2.484999999999999987e-01
1.295000000000000040e-01
2.020000000000000129e-01
2.020000000000000129e-01
2.797499999999999987e-01
2.952500000000000124e-01
2.020000000000000129e-01
2.122499999999999942e-01
2.484999999999999987e-01
2.072499999999999898e-01
1.759999999999999898e-01
2.745000000000000218e-01
2.849999999999999756e-01
3.522500000000000075e-01
2.330000000000000127e-01
2.745000000000000218e-01
1.812499999999999944e-01
2.382499999999999896e-01
2.122499999999999942e-01
2.020000000000000129e-01
1.967500000000000082e-01
2.174999999999999989e-01
1.449999999999999900e-01
1.192499999999999949e-01
2.227500000000000036e-01
2.280000000000000082e-01
1.759999999999999898e-01
1.657500000000000084e-01
1.605000000000000038e-01
1.554999999999999993e-01
1.347500000000000087e-01
1.710000000000000131e-01
2.330000000000000127e-01
2.642499999999999849e-01
2.899999999999999800e-01
2.020000000000000129e-01
1.710000000000000131e-01
2.072499999999999898e-01
2.280000000000000082e-01
2.642499999999999849e-01
2.227500000000000036e-01
1.710000000000000131e-01
2.227500000000000036e-01
1.242499999999999993e-01
1.657500000000000084e-01
1.812499999999999944e-01
1.864999999999999991e-01
2.227500000000000036e-01
1.917500000000000038e-01
2.590000000000000080e-01
1.710000000000000131e-01
2.382499999999999896e-01
2.590000000000000080e-01
3.780000000000000027e-01
1.605000000000000038e-01
2.072499999999999898e-01
2.434999999999999942e-01
4.505000000000000115e-01
7.302499999999999547e-01
1.502499999999999947e-01
2.484999999999999987e-01
3.054999999999999938e-01
1.502499999999999947e-01
2.849999999999999756e-01
3.004999999999999893e-01
2.537499999999999756e-01
2.642499999999999849e-01
1.657500000000000084e-01
2.330000000000000127e-01
2.072499999999999898e-01
1.449999999999999900e-01
2.434999999999999942e-01
1.864999999999999991e-01
1.347500000000000087e-01
2.072499999999999898e-01
2.280000000000000082e-01
1.605000000000000038e-01
2.174999999999999989e-01
2.174999999999999989e-01
2.692499999999999893e-01
3.160000000000000031e-01
1.917500000000000038e-01
2.434999999999999942e-01
1.759999999999999898e-01
2.434999999999999942e-01
4.092500000000000027e-01
1.710000000000000131e-01
3.262499999999999845e-01
3.262499999999999845e-01
1.812499999999999944e-01
1.759999999999999898e-01
2.174999999999999989e-01
2.745000000000000218e-01
2.020000000000000129e-01
4.247500000000000164e-01
2.797499999999999987e-01
1.812499999999999944e-01
3.677500000000000213e-01
3.417499999999999982e-01
3.729999999999999982e-01
3.987499999999999933e-01
4.610000000000000209e-01
2.797499999999999987e-01
3.937499999999999889e-01
4.919999999999999929e-01
4.869999999999999885e-01
3.987499999999999933e-01
3.160000000000000031e-01
3.417499999999999982e-01
3.004999999999999893e-01
4.194999999999999840e-01
3.780000000000000027e-01
2.590000000000000080e-01
2.280000000000000082e-01
3.780000000000000027e-01
1.812499999999999944e-01
3.469999999999999751e-01
3.574999999999999845e-01
1.502499999999999947e-01
2.537499999999999756e-01
2.537499999999999756e-01
1.864999999999999991e-01
2.484999999999999987e-01
1.864999999999999991e-01
2.642499999999999849e-01
2.072499999999999898e-01
1.864999999999999991e-01
2.590000000000000080e-01
3.315000000000000169e-01
2.072499999999999898e-01
2.952500000000000124e-01
2.484999999999999987e-01
2.434999999999999942e-01
2.174999999999999989e-01
3.624999999999999889e-01
3.780000000000000027e-01
2.330000000000000127e-01
2.484999999999999987e-01
2.537499999999999756e-01
3.107500000000000262e-01
2.797499999999999987e-01
1.192499999999999949e-01
2.330000000000000127e-01
1.812499999999999944e-01
9.324999999999999956e-02
1.192499999999999949e-01
1.605000000000000038e-01
1.347500000000000087e-01
1.502499999999999947e-01
2.072499999999999898e-01
1.449999999999999900e-01
2.434999999999999942e-01
2.692499999999999893e-01
2.642499999999999849e-01
3.624999999999999889e-01
1.759999999999999898e-01
2.122499999999999942e-01
1.605000000000000038e-01
2.434999999999999942e-01
1.502499999999999947e-01
1.192499999999999949e-01
3.004999999999999893e-01
2.020000000000000129e-01
1.864999999999999991e-01
1.295000000000000040e-01
1.657500000000000084e-01
1.034999999999999948e-01
2.382499999999999896e-01
2.174999999999999989e-01
1.347500000000000087e-01
1.657500000000000084e-01
1.347500000000000087e-01
2.072499999999999898e-01
1.397500000000000131e-01
2.072499999999999898e-01
1.140000000000000041e-01
9.324999999999999956e-02
1.449999999999999900e-01
5.700000000000000205e-02
3.624999999999999750e-02
7.774999999999999967e-02
8.275000000000000411e-02
1.192499999999999949e-01
5.174999999999999739e-02
1.242499999999999993e-01
4.150000000000000216e-02
7.774999999999999967e-02
6.725000000000000422e-02
9.324999999999999956e-02
6.224999999999999978e-02
7.249999999999999500e-02
4.649999999999999967e-02
3.624999999999999750e-02
4.649999999999999967e-02
6.224999999999999978e-02
5.700000000000000205e-02
7.249999999999999500e-02
1.087499999999999994e-01
6.725000000000000422e-02
5.700000000000000205e-02
7.774999999999999967e-02
7.774999999999999967e-02
4.649999999999999967e-02
6.224999999999999978e-02
5.174999999999999739e-02
6.725000000000000422e-02
5.174999999999999739e-02
1.242499999999999993e-01
9.850000000000000422e-02
1.554999999999999993e-01
4.649999999999999967e-02
3.417499999999999982e-01
1.502499999999999947e-01
5.174999999999999739e-02
7.774999999999999967e-02
5.700000000000000205e-02
5.174999999999999739e-02
4.649999999999999967e-02
5.700000000000000205e-02
7.774999999999999967e-02
7.774999999999999967e-02
5.700000000000000205e-02
6.725000000000000422e-02
1.347500000000000087e-01
9.850000000000000422e-02
6.224999999999999978e-02
1.034999999999999948e-01
1.710000000000000131e-01
7.249999999999999500e-02
7.249999999999999500e-02
5.174999999999999739e-02
4.150000000000000216e-02
6.725000000000000422e-02
3.624999999999999750e-02
6.224999999999999978e-02
4.649999999999999967e-02
4.649999999999999967e-02
3.099999999999999978e-02
4.150000000000000216e-02
3.624999999999999750e-02
3.099999999999999978e-02
3.624999999999999750e-02
4.649999999999999967e-02
6.224999999999999978e-02
3.099999999999999978e-02
5.174999999999999739e-02
4.150000000000000216e-02
1.034999999999999948e-01
5.174999999999999739e-02
4.150000000000000216e-02
3.099999999999999978e-02
3.624999999999999750e-02
5.174999999999999739e-02
3.624999999999999750e-02
4.649999999999999967e-02
3.624999999999999750e-02
4.649999999999999967e-02
4.150000000000000216e-02
4.150000000000000216e-02
4.649999999999999967e-02
7.249999999999999500e-02
4.649999999999999967e-02
4.150000000000000216e-02
4.150000000000000216e-02
3.624999999999999750e-02
4.150000000000000216e-02
3.099999999999999978e-02
3.624999999999999750e-02
3.624999999999999750e-02
3.624999999999999750e-02
4.150000000000000216e-02
4.150000000000000216e-02
4.150000000000000216e-02
4.150000000000000216e-02
8.275000000000000411e-02
6.725000000000000422e-02
5.700000000000000205e-02
3.624999999999999750e-02
3.099999999999999978e-02
4.150000000000000216e-02
4.150000000000000216e-02
3.624999999999999750e-02
4.150000000000000216e-02
4.150000000000000216e-02
4.150000000000000216e-02
6.725000000000000422e-02
3.624999999999999750e-02
6.224999999999999978e-02
4.649999999999999967e-02
3.624999999999999750e-02
4.649999999999999967e-02
4.150000000000000216e-02
3.099999999999999978e-02
3.624999999999999750e-02
4.150000000000000216e-02
8.799999999999999489e-02
4.150000000000000216e-02
3.099999999999999978e-02
5.700000000000000205e-02
7.249999999999999500e-02
5.174999999999999739e-02
8.275000000000000411e-02
3.099999999999999978e-02
4.649999999999999967e-02
4.150000000000000216e-02
4.649999999999999967e-02
1.759999999999999898e-01
6.224999999999999978e-02
4.150000000000000216e-02
4.150000000000000216e-02
1.140000000000000041e-01
8.799999999999999489e-02
1.554999999999999993e-01
4.649999999999999967e-02
1.087499999999999994e-01
1.347500000000000087e-01
7.249999999999999500e-02
6.224999999999999978e-02
1.554999999999999993e-01
8.799999999999999489e-02
6.725000000000000422e-02
7.774999999999999967e-02
5.700000000000000205e-02
3.624999999999999750e-02
1.295000000000000040e-01
6.725000000000000422e-02
5.700000000000000205e-02
9.850000000000000422e-02
8.275000000000000411e-02
9.850000000000000422e-02
5.700000000000000205e-02
4.649999999999999967e-02
9.324999999999999956e-02
1.087499999999999994e-01
6.224999999999999978e-02
6.224999999999999978e-02
5.174999999999999739e-02
9.324999999999999956e-02
8.275000000000000411e-02
4.150000000000000216e-02
5.174999999999999739e-02
7.249999999999999500e-02
4.649999999999999967e-02
4.649999999999999967e-02
6.224999999999999978e-02
6.224999999999999978e-02
7.249999999999999500e-02
5.700000000000000205e-02
5.174999999999999739e-02
5.700000000000000205e-02
5.174999999999999739e-02
9.324999999999999956e-02
4.649999999999999967e-02
1.034999999999999948e-01
5.174999999999999739e-02
3.099999999999999978e-02
3.099999999999999978e-02
5.700000000000000205e-02
3.099999999999999978e-02
4.649999999999999967e-02
3.624999999999999750e-02
4.150000000000000216e-02
3.099999999999999978e-02
5.700000000000000205e-02
6.224999999999999978e-02
6.725000000000000422e-02
5.174999999999999739e-02
3.624999999999999750e-02
6.224999999999999978e-02
4.649999999999999967e-02
5.700000000000000205e-02
3.624999999999999750e-02
5.174999999999999739e-02
4.649999999999999967e-02
4.150000000000000216e-02
4.649999999999999967e-02
6.224999999999999978e-02
6.725000000000000422e-02
5.174999999999999739e-02
4.649999999999999967e-02
3.624999999999999750e-02
4.150000000000000216e-02
4.150000000000000216e-02
3.624999999999999750e-02
4.649999999999999967e-02
3.624999999999999750e-02
4.150000000000000216e-02
5.174999999999999739e-02
5.174999999999999739e-02
4.649999999999999967e-02
6.224999999999999978e-02
4.649999999999999967e-02
4.150000000000000216e-02
5.174999999999999739e-02
4.649999999999999967e-02
3.624999999999999750e-02
3.099999999999999978e-02
3.624999999999999750e-02
5.700000000000000205e-02
4.150000000000000216e-02
5.174999999999999739e-02
4.649999999999999967e-02
3.099999999999999978e-02
7.774999999999999967e-02
6.725000000000000422e-02
4.649999999999999967e-02
3.624999999999999750e-02
5.700000000000000205e-02
4.150000000000000216e-02
5.174999999999999739e-02
4.150000000000000216e-02
4.150000000000000216e-02
4.649999999999999967e-02
4.150000000000000216e-02
3.624999999999999750e-02
3.624999999999999750e-02
4.150000000000000216e-02
8.275000000000000411e-02
7.249999999999999500e-02
2.599999999999999881e-02
4.649999999999999967e-02
5.174999999999999739e-02
4.649999999999999967e-02
5.174999999999999739e-02
5.174999999999999739e-02
5.700000000000000205e-02
4.150000000000000216e-02
3.099999999999999978e-02
3.624999999999999750e-02
4.649999999999999967e-02
7.249999999999999500e-02
3.099999999999999978e-02
3.099999999999999978e-02
5.174999999999999739e-02
4.649999999999999967e-02
5.700000000000000205e-02
5.700000000000000205e-02
4.649999999999999967e-02
4.649999999999999967e-02
5.174999999999999739e-02
1.605000000000000038e-01
5.700000000000000205e-02
6.224999999999999978e-02
9.324999999999999956e-02
7.249999999999999500e-02
4.649999999999999967e-02
4.150000000000000216e-02
5.174999999999999739e-02
5.174999999999999739e-02
4.150000000000000216e-02
8.275000000000000411e-02
7.249999999999999500e-02
8.275000000000000411e-02
6.725000000000000422e-02
7.249999999999999500e-02
7.774999999999999967e-02
7.249999999999999500e-02
1.087499999999999994e-01
7.774999999999999967e-02
4.150000000000000216e-02
9.850000000000000422e-02
8.799999999999999489e-02
7.249999999999999500e-02
1.087499999999999994e-01
7.249999999999999500e-02
1.140000000000000041e-01
6.224999999999999978e-02
5.174999999999999739e-02
4.649999999999999967e-02
4.150000000000000216e-02
5.174999999999999739e-02
6.725000000000000422e-02
6.224999999999999978e-02
5.700000000000000205e-02
4.150000000000000216e-02
6.224999999999999978e-02
4.649999999999999967e-02
5.174999999999999739e-02
5.174999999999999739e-02
5.174999999999999739e-02
4.649999999999999967e-02
3.624999999999999750e-02
3.624999999999999750e-02
6.725000000000000422e-02
4.150000000000000216e-02
4.150000000000000216e-02
4.649999999999999967e-02
6.784999999999999920e-01
2.280000000000000082e-01
5.700000000000000205e-02
5.700000000000000205e-02
1.140000000000000041e-01
8.799999999999999489e-02
5.174999999999999739e-02
7.774999999999999967e-02
8.275000000000000411e-02
7.774999999999999967e-02
5.700000000000000205e-02
7.249999999999999500e-02
1.397500000000000131e-01
9.324999999999999956e-02
8.275000000000000411e-02
6.725000000000000422e-02
7.774999999999999967e-02
5.174999999999999739e-02
9.324999999999999956e-02
4.150000000000000216e-02
4.150000000000000216e-02
6.224999999999999978e-02
8.275000000000000411e-02
6.725000000000000422e-02
6.725000000000000422e-02
4.649999999999999967e-02
3.624999999999999750e-02
6.224999999999999978e-02
7.249999999999999500e-02
1.710000000000000131e-01
1.242499999999999993e-01
8.799999999999999489e-02
5.700000000000000205e-02
5.174999999999999739e-02
9.850000000000000422e-02
1.034999999999999948e-01
8.799999999999999489e-02
9.324999999999999956e-02
8.799999999999999489e-02
1.087499999999999994e-01
1.710000000000000131e-01
6.725000000000000422e-02
1.034999999999999948e-01
1.347500000000000087e-01
6.725000000000000422e-02
6.725000000000000422e-02
1.605000000000000038e-01
8.275000000000000411e-02
1.397500000000000131e-01
1.242499999999999993e-01
6.725000000000000422e-02
6.224999999999999978e-02
9.850000000000000422e-02
4.150000000000000216e-02
9.850000000000000422e-02
1.034999999999999948e-01
4.150000000000000216e-02
5.174999999999999739e-02
4.649999999999999967e-02
1.034999999999999948e-01
5.174999999999999739e-02
1.034999999999999948e-01
8.799999999999999489e-02
4.649999999999999967e-02
1.140000000000000041e-01
4.649999999999999967e-02
4.649999999999999967e-02
6.224999999999999978e-02
1.140000000000000041e-01
1.034999999999999948e-01
4.649999999999999967e-02
1.295000000000000040e-01
6.224999999999999978e-02
4.150000000000000216e-02
6.224999999999999978e-02
6.224999999999999978e-02
5.700000000000000205e-02
7.249999999999999500e-02
9.850000000000000422e-02
5.174999999999999739e-02
4.649999999999999967e-02
5.700000000000000205e-02
7.249999999999999500e-02
8.275000000000000411e-02
1.295000000000000040e-01
7.774999999999999967e-02
1.034999999999999948e-01
6.224999999999999978e-02
5.174999999999999739e-02
6.725000000000000422e-02
7.774999999999999967e-02
5.700000000000000205e-02
6.725000000000000422e-02
1.034999999999999948e-01
6.224999999999999978e-02
6.725000000000000422e-02
9.324999999999999956e-02
7.774999999999999967e-02
6.725000000000000422e-02
1.397500000000000131e-01
9.850000000000000422e-02
6.725000000000000422e-02
2.122499999999999942e-01
2.952500000000000124e-01
4.505000000000000115e-01
1.449999999999999900e-01
1.192499999999999949e-01
1.710000000000000131e-01
1.034999999999999948e-01
1.192499999999999949e-01
5.174999999999999739e-02
1.967500000000000082e-01
1.192499999999999949e-01
7.249999999999999500e-02
8.275000000000000411e-02
1.140000000000000041e-01
1.034999999999999948e-01
1.295000000000000040e-01
1.242499999999999993e-01
1.034999999999999948e-01
1.397500000000000131e-01
8.275000000000000411e-02
3.315000000000000169e-01
3.417499999999999982e-01
1.864999999999999991e-01
8.799999999999999489e-02
1.295000000000000040e-01
1.034999999999999948e-01
1.502499999999999947e-01
1.710000000000000131e-01
2.020000000000000129e-01
1.397500000000000131e-01
1.710000000000000131e-01
1.034999999999999948e-01
2.020000000000000129e-01
1.864999999999999991e-01
1.397500000000000131e-01
1.864999999999999991e-01
1.140000000000000041e-01
1.087499999999999994e-01
7.249999999999999500e-02
2.174999999999999989e-01
7.774999999999999967e-02
1.502499999999999947e-01
8.799999999999999489e-02
1.397500000000000131e-01
1.192499999999999949e-01
5.174999999999999739e-02
1.140000000000000041e-01
1.295000000000000040e-01
9.850000000000000422e-02
9.850000000000000422e-02
1.242499999999999993e-01
1.502499999999999947e-01
1.295000000000000040e-01
1.242499999999999993e-01
1.864999999999999991e-01
1.087499999999999994e-01
8.799999999999999489e-02
1.397500000000000131e-01
6.725000000000000422e-02
7.774999999999999967e-02
7.249999999999999500e-02
7.774999999999999967e-02
7.249999999999999500e-02
1.242499999999999993e-01
9.850000000000000422e-02
5.700000000000000205e-02
1.347500000000000087e-01
7.249999999999999500e-02
1.347500000000000087e-01
1.295000000000000040e-01
1.657500000000000084e-01
8.275000000000000411e-02
6.725000000000000422e-02
6.725000000000000422e-02
8.275000000000000411e-02
6.725000000000000422e-02
7.774999999999999967e-02
7.774999999999999967e-02
5.700000000000000205e-02
6.224999999999999978e-02
7.774999999999999967e-02
7.774999999999999967e-02
6.224999999999999978e-02
5.174999999999999739e-02
8.799999999999999489e-02
7.774999999999999967e-02
6.725000000000000422e-02
8.275000000000000411e-02
6.725000000000000422e-02
5.174999999999999739e-02
6.224999999999999978e-02
6.725000000000000422e-02
9.324999999999999956e-02
7.774999999999999967e-02
6.725000000000000422e-02
7.774999999999999967e-02
9.324999999999999956e-02
5.700000000000000205e-02
5.700000000000000205e-02
6.224999999999999978e-02
4.649999999999999967e-02
4.649999999999999967e-02
6.224999999999999978e-02
4.150000000000000216e-02
6.725000000000000422e-02
1.087499999999999994e-01
4.649999999999999967e-02
1.347500000000000087e-01
6.725000000000000422e-02
1.295000000000000040e-01
2.849999999999999756e-01
7.249999999999999500e-02
6.224999999999999978e-02
1.192499999999999949e-01
1.710000000000000131e-01
6.725000000000000422e-02
5.700000000000000205e-02
7.774999999999999967e-02
6.224999999999999978e-02
7.249999999999999500e-02
7.249999999999999500e-02
9.850000000000000422e-02
7.774999999999999967e-02
6.725000000000000422e-02
4.150000000000000216e-02
4.150000000000000216e-02
6.224999999999999978e-02
6.725000000000000422e-02
8.799999999999999489e-02
5.700000000000000205e-02
5.700000000000000205e-02
6.725000000000000422e-02
5.700000000000000205e-02
6.725000000000000422e-02
6.725000000000000422e-02
7.249999999999999500e-02
5.700000000000000205e-02
6.224999999999999978e-02
5.700000000000000205e-02
8.275000000000000411e-02
7.249999999999999500e-02
4.649999999999999967e-02
8.799999999999999489e-02
7.249999999999999500e-02
8.275000000000000411e-02
4.150000000000000216e-02
7.774999999999999967e-02
5.700000000000000205e-02
5.700000000000000205e-02
5.174999999999999739e-02
5.174999999999999739e-02
6.725000000000000422e-02
6.224999999999999978e-02
5.174999999999999739e-02
7.774999999999999967e-02
8.799999999999999489e-02
6.725000000000000422e-02
7.249999999999999500e-02
7.774999999999999967e-02
8.799999999999999489e-02
7.774999999999999967e-02
9.324999999999999956e-02
9.324999999999999956e-02
1.242499999999999993e-01
1.347500000000000087e-01
6.725000000000000422e-02
7.774999999999999967e-02
5.174999999999999739e-02
6.725000000000000422e-02
1.034999999999999948e-01
5.174999999999999739e-02
6.224999999999999978e-02
7.249999999999999500e-02
7.774999999999999967e-02
6.725000000000000422e-02
6.224999999999999978e-02
8.275000000000000411e-02
6.224999999999999978e-02
6.224999999999999978e-02
6.725000000000000422e-02
5.700000000000000205e-02
5.174999999999999739e-02
7.249999999999999500e-02
6.224999999999999978e-02
3.624999999999999750e-02
8.799999999999999489e-02
6.224999999999999978e-02
8.275000000000000411e-02
7.249999999999999500e-02
6.224999999999999978e-02
5.174999999999999739e-02
6.224999999999999978e-02
5.174999999999999739e-02
7.774999999999999967e-02
5.174999999999999739e-02
6.224999999999999978e-02
8.799999999999999489e-02
9.324999999999999956e-02
8.799999999999999489e-02
5.700000000000000205e-02
1.034999999999999948e-01
1.192499999999999949e-01
6.725000000000000422e-02
7.249999999999999500e-02
6.224999999999999978e-02
6.725000000000000422e-02
6.725000000000000422e-02
4.150000000000000216e-02
6.224999999999999978e-02
4.649999999999999967e-02
7.249999999999999500e-02
5.700000000000000205e-02
9.324999999999999956e-02
5.174999999999999739e-02
1.347500000000000087e-01
1.034999999999999948e-01
5.174999999999999739e-02
4.649999999999999967e-02
8.275000000000000411e-02
4.649999999999999967e-02
5.700000000000000205e-02
4.150000000000000216e-02
5.700000000000000205e-02
5.700000000000000205e-02
1.347500000000000087e-01
6.224999999999999978e-02
5.700000000000000205e-02
7.249999999999999500e-02
9.324999999999999956e-02
1.087499999999999994e-01
4.649999999999999967e-02
8.275000000000000411e-02
5.174999999999999739e-02
4.150000000000000216e-02
7.249999999999999500e-02
7.774999999999999967e-02
7.249999999999999500e-02
7.249999999999999500e-02
5.700000000000000205e-02
8.275000000000000411e-02
9.850000000000000422e-02
8.275000000000000411e-02
3.624999999999999750e-02
9.324999999999999956e-02
4.649999999999999967e-02
4.649999999999999967e-02
5.700000000000000205e-02
4.150000000000000216e-02
6.224999999999999978e-02
7.774999999999999967e-02
5.700000000000000205e-02
4.649999999999999967e-02
5.700000000000000205e-02
6.725000000000000422e-02
6.725000000000000422e-02
5.174999999999999739e-02
6.224999999999999978e-02
5.174999999999999739e-02
4.150000000000000216e-02
3.099999999999999978e-02
4.649999999999999967e-02
3.624999999999999750e-02
4.649999999999999967e-02
4.649999999999999967e-02
3.624999999999999750e-02
5.700000000000000205e-02
5.174999999999999739e-02
8.799999999999999489e-02
1.087499999999999994e-01
1.554999999999999993e-01
6.725000000000000422e-02
9.324999999999999956e-02
4.649999999999999967e-02
5.174999999999999739e-02
5.174999999999999739e-02
3.624999999999999750e-02
5.174999999999999739e-02
5.174999999999999739e-02
4.150000000000000216e-02
4.150000000000000216e-02
4.150000000000000216e-02
7.249999999999999500e-02
6.224999999999999978e-02
3.624999999999999750e-02
6.725000000000000422e-02
4.649999999999999967e-02
6.725000000000000422e-02
5.700000000000000205e-02
4.649999999999999967e-02
4.649999999999999967e-02
4.649999999999999967e-02
6.224999999999999978e-02
4.150000000000000216e-02
5.700000000000000205e-02
5.174999999999999739e-02
1.087499999999999994e-01
6.725000000000000422e-02
1.087499999999999994e-01
5.700000000000000205e-02
6.224999999999999978e-02
9.324999999999999956e-02
5.700000000000000205e-02
7.774999999999999967e-02
8.275000000000000411e-02
7.774999999999999967e-02
6.725000000000000422e-02
4.649999999999999967e-02
4.150000000000000216e-02
3.624999999999999750e-02
5.700000000000000205e-02
5.700000000000000205e-02
4.649999999999999967e-02
5.700000000000000205e-02
5.700000000000000205e-02
3.099999999999999978e-02
4.150000000000000216e-02
4.150000000000000216e-02
4.649999999999999967e-02
4.649999999999999967e-02
5.700000000000000205e-02
5.174999999999999739e-02
6.725000000000000422e-02
6.224999999999999978e-02
1.034999999999999948e-01
7.249999999999999500e-02
5.700000000000000205e-02
4.150000000000000216e-02
4.150000000000000216e-02
3.624999999999999750e-02
6.725000000000000422e-02
4.649999999999999967e-02
3.624999999999999750e-02
5.174999999999999739e-02
4.649999999999999967e-02
5.700000000000000205e-02
6.725000000000000422e-02
4.150000000000000216e-02
6.224999999999999978e-02
3.624999999999999750e-02
9.324999999999999956e-02
7.774999999999999967e-02
7.774999999999999967e-02
5.174999999999999739e-02
1.347500000000000087e-01
6.224999999999999978e-02
1.192499999999999949e-01
6.224999999999999978e-02
4.649999999999999967e-02
7.249999999999999500e-02
1.347500000000000087e-01
8.799999999999999489e-02
6.725000000000000422e-02
5.174999999999999739e-02
6.725000000000000422e-02
9.850000000000000422e-02
7.774999999999999967e-02
6.224999999999999978e-02
5.700000000000000205e-02
5.174999999999999739e-02
6.224999999999999978e-02
6.725000000000000422e-02
6.725000000000000422e-02
8.275000000000000411e-02
6.224999999999999978e-02
1.397500000000000131e-01
6.224999999999999978e-02
7.774999999999999967e-02
6.224999999999999978e-02
5.700000000000000205e-02
6.224999999999999978e-02
5.174999999999999739e-02
5.700000000000000205e-02
5.700000000000000205e-02
6.224999999999999978e-02
8.275000000000000411e-02
6.224999999999999978e-02
8.799999999999999489e-02
7.774999999999999967e-02
7.249999999999999500e-02
8.275000000000000411e-02
6.725000000000000422e-02
5.174999999999999739e-02
7.774999999999999967e-02
8.275000000000000411e-02
6.224999999999999978e-02
6.224999999999999978e-02
5.700000000000000205e-02
5.174999999999999739e-02
5.700000000000000205e-02
8.799999999999999489e-02
7.249999999999999500e-02
5.700000000000000205e-02
6.224999999999999978e-02
3.624999999999999750e-02
4.649999999999999967e-02
9.850000000000000422e-02
6.725000000000000422e-02
6.224999999999999978e-02
1.554999999999999993e-01
1.034999999999999948e-01
5.700000000000000205e-02
8.799999999999999489e-02
9.850000000000000422e-02
6.224999999999999978e-02
4.649999999999999967e-02
6.725000000000000422e-02
6.224999999999999978e-02
5.700000000000000205e-02
7.774999999999999967e-02
5.174999999999999739e-02
4.150000000000000216e-02
6.224999999999999978e-02
4.649999999999999967e-02
6.725000000000000422e-02
7.774999999999999967e-02
1.034999999999999948e-01
5.700000000000000205e-02
6.224999999999999978e-02
4.649999999999999967e-02
5.174999999999999739e-02
5.700000000000000205e-02
4.649999999999999967e-02
5.700000000000000205e-02
4.649999999999999967e-02
5.700000000000000205e-02
5.174999999999999739e-02
4.649999999999999967e-02
5.700000000000000205e-02
9.850000000000000422e-02
5.174999999999999739e-02
3.624999999999999750e-02
4.649999999999999967e-02
5.700000000000000205e-02
5.700000000000000205e-02
4.649999999999999967e-02
4.150000000000000216e-02
4.150000000000000216e-02
4.150000000000000216e-02
5.700000000000000205e-02
4.649999999999999967e-02
4.649999999999999967e-02
5.700000000000000205e-02
7.249999999999999500e-02
5.700000000000000205e-02
4.150000000000000216e-02
5.174999999999999739e-02
5.174999999999999739e-02
5.700000000000000205e-02
5.174999999999999739e-02
4.150000000000000216e-02
6.725000000000000422e-02
5.174999999999999739e-02
5.700000000000000205e-02
4.150000000000000216e-02
5.700000000000000205e-02
8.275000000000000411e-02
5.700000000000000205e-02
5.174999999999999739e-02
5.174999999999999739e-02
3.099999999999999978e-02
5.174999999999999739e-02
4.150000000000000216e-02
8.799999999999999489e-02
6.224999999999999978e-02
6.224999999999999978e-02
3.624999999999999750e-02
6.224999999999999978e-02
5.174999999999999739e-02
6.725000000000000422e-02
7.249999999999999500e-02
9.324999999999999956e-02
7.249999999999999500e-02
6.224999999999999978e-02
6.725000000000000422e-02
6.725000000000000422e-02
4.150000000000000216e-02
6.224999999999999978e-02
6.224999999999999978e-02
6.224999999999999978e-02
5.700000000000000205e-02
5.174999999999999739e-02
5.700000000000000205e-02
9.324999999999999956e-02
6.725000000000000422e-02
5.700000000000000205e-02
3.624999999999999750e-02
3.099999999999999978e-02
5.700000000000000205e-02
5.174999999999999739e-02
4.649999999999999967e-02
5.700000000000000205e-02
6.224999999999999978e-02
5.700000000000000205e-02
1.034999999999999948e-01
4.649999999999999967e-02
9.324999999999999956e-02
1.034999999999999948e-01
4.649999999999999967e-02
6.725000000000000422e-02
4.150000000000000216e-02
6.224999999999999978e-02
6.224999999999999978e-02
3.624999999999999750e-02
5.700000000000000205e-02
7.774999999999999967e-02
4.150000000000000216e-02
4.150000000000000216e-02
5.700000000000000205e-02
8.275000000000000411e-02
5.174999999999999739e-02
4.150000000000000216e-02
4.649999999999999967e-02
4.649999999999999967e-02
3.099999999999999978e-02
4.150000000000000216e-02
2.599999999999999881e-02
5.174999999999999739e-02
3.624999999999999750e-02
4.150000000000000216e-02
4.649999999999999967e-02
4.150000000000000216e-02
6.224999999999999978e-02
5.700000000000000205e-02
4.649999999999999967e-02
5.700000000000000205e-02
4.649999999999999967e-02
5.174999999999999739e-02
7.249999999999999500e-02
4.649999999999999967e-02
7.249999999999999500e-02
9.324999999999999956e-02
4.649999999999999967e-02
5.700000000000000205e-02
5.700000000000000205e-02
6.224999999999999978e-02
4.150000000000000216e-02
4.649999999999999967e-02
7.249999999999999500e-02
5.700000000000000205e-02
4.150000000000000216e-02
3.624999999999999750e-02
3.099999999999999978e-02
5.700000000000000205e-02
5.700000000000000205e-02
5.700000000000000205e-02
6.224999999999999978e-02
7.774999999999999967e-02
1.087499999999999994e-01
5.174999999999999739e-02
4.150000000000000216e-02
3.099999999999999978e-02
5.700000000000000205e-02
5.700000000000000205e-02
5.174999999999999739e-02
4.150000000000000216e-02
4.150000000000000216e-02
4.649999999999999967e-02
5.700000000000000205e-02
6.224999999999999978e-02
1.140000000000000041e-01
7.249999999999999500e-02
4.150000000000000216e-02
3.624999999999999750e-02
5.174999999999999739e-02
3.099999999999999978e-02
4.649999999999999967e-02
4.649999999999999967e-02
4.649999999999999967e-02
3.624999999999999750e-02
3.624999999999999750e-02
6.224999999999999978e-02
4.649999999999999967e-02
5.700000000000000205e-02
3.624999999999999750e-02
5.174999999999999739e-02
5.700000000000000205e-02
4.150000000000000216e-02
6.725000000000000422e-02
4.649999999999999967e-02
5.174999999999999739e-02
4.150000000000000216e-02
4.150000000000000216e-02
5.700000000000000205e-02
4.150000000000000216e-02
6.224999999999999978e-02
9.850000000000000422e-02
3.624999999999999750e-02
5.700000000000000205e-02
4.150000000000000216e-02
6.725000000000000422e-02
5.700000000000000205e-02
5.700000000000000205e-02
5.700000000000000205e-02
3.624999999999999750e-02
3.624999999999999750e-02
5.174999999999999739e-02
9.850000000000000422e-02
9.324999999999999956e-02
6.224999999999999978e-02
5.700000000000000205e-02
5.174999999999999739e-02
6.725000000000000422e-02
5.700000000000000205e-02
3.624999999999999750e-02
6.224999999999999978e-02
4.649999999999999967e-02
5.174999999999999739e-02
4.649999999999999967e-02
3.624999999999999750e-02
3.624999999999999750e-02
7.249999999999999500e-02
5.700000000000000205e-02
4.649999999999999967e-02
5.174999999999999739e-02
4.649999999999999967e-02
3.624999999999999750e-02
3.099999999999999978e-02
5.174999999999999739e-02
4.150000000000000216e-02
3.624999999999999750e-02
3.624999999999999750e-02
4.150000000000000216e-02
6.224999999999999978e-02
6.725000000000000422e-02
4.150000000000000216e-02
5.174999999999999739e-02
4.150000000000000216e-02
4.649999999999999967e-02
4.150000000000000216e-02
5.174999999999999739e-02
3.624999999999999750e-02
7.249999999999999500e-02
6.725000000000000422e-02
5.700000000000000205e-02
5.174999999999999739e-02
4.649999999999999967e-02
6.725000000000000422e-02
8.799999999999999489e-02
6.224999999999999978e-02
4.150000000000000216e-02
8.275000000000000411e-02
5.174999999999999739e-02
6.224999999999999978e-02
6.725000000000000422e-02
6.224999999999999978e-02
8.799999999999999489e-02
6.725000000000000422e-02
6.725000000000000422e-02
5.174999999999999739e-02
8.275000000000000411e-02
6.725000000000000422e-02
5.174999999999999739e-02
9.324999999999999956e-02
6.224999999999999978e-02
8.799999999999999489e-02
6.224999999999999978e-02
4.150000000000000216e-02
4.649999999999999967e-02
5.174999999999999739e-02
4.150000000000000216e-02
5.174999999999999739e-02
5.700000000000000205e-02
6.725000000000000422e-02
9.850000000000000422e-02
6.725000000000000422e-02
7.249999999999999500e-02
6.224999999999999978e-02
7.249999999999999500e-02
4.649999999999999967e-02
5.700000000000000205e-02
4.150000000000000216e-02
6.224999999999999978e-02
7.249999999999999500e-02
5.174999999999999739e-02
7.249999999999999500e-02
8.799999999999999489e-02
6.224999999999999978e-02
3.624999999999999750e-02
5.174999999999999739e-02
4.649999999999999967e-02
5.174999999999999739e-02
4.649999999999999967e-02
5.174999999999999739e-02
6.725000000000000422e-02
6.224999999999999978e-02
4.150000000000000216e-02
4.649999999999999967e-02
5.700000000000000205e-02
7.249999999999999500e-02
6.725000000000000422e-02
6.224999999999999978e-02
8.275000000000000411e-02
4.649999999999999967e-02
6.725000000000000422e-02
5.700000000000000205e-02
6.224999999999999978e-02
7.774999999999999967e-02
6.725000000000000422e-02
6.725000000000000422e-02
4.649999999999999967e-02
5.174999999999999739e-02
1.140000000000000041e-01
5.174999999999999739e-02
4.150000000000000216e-02
4.649999999999999967e-02
6.224999999999999978e-02
6.224999999999999978e-02
4.649999999999999967e-02
5.700000000000000205e-02
9.850000000000000422e-02
8.799999999999999489e-02
6.725000000000000422e-02
6.725000000000000422e-02
7.774999999999999967e-02
8.275000000000000411e-02
8.799999999999999489e-02
7.774999999999999967e-02
1.347500000000000087e-01
8.275000000000000411e-02
7.249999999999999500e-02
9.324999999999999956e-02
6.725000000000000422e-02
7.249999999999999500e-02
8.799999999999999489e-02
8.275000000000000411e-02
5.174999999999999739e-02
2.797499999999999987e-01
3.054999999999999938e-01
7.774999999999999967e-02
1.192499999999999949e-01
4.649999999999999967e-02
5.700000000000000205e-02
5.700000000000000205e-02
7.249999999999999500e-02
4.649999999999999967e-02
5.174999999999999739e-02
4.649999999999999967e-02
7.774999999999999967e-02
6.224999999999999978e-02
6.224999999999999978e-02
5.174999999999999739e-02
1.347500000000000087e-01
6.224999999999999978e-02
4.150000000000000216e-02
4.150000000000000216e-02
5.174999999999999739e-02
5.174999999999999739e-02
4.150000000000000216e-02
4.649999999999999967e-02
6.224999999999999978e-02
7.249999999999999500e-02
5.700000000000000205e-02
5.700000000000000205e-02
5.700000000000000205e-02
7.774999999999999967e-02
6.224999999999999978e-02
7.774999999999999967e-02
7.249999999999999500e-02
4.649999999999999967e-02
5.700000000000000205e-02
5.174999999999999739e-02
4.649999999999999967e-02
7.774999999999999967e-02
4.649999999999999967e-02
4.649999999999999967e-02
7.249999999999999500e-02
6.725000000000000422e-02
1.347500000000000087e-01
1.242499999999999993e-01
4.649999999999999967e-02
8.275000000000000411e-02
5.174999999999999739e-02
4.649999999999999967e-02
6.224999999999999978e-02
7.774999999999999967e-02
9.324999999999999956e-02
4.649999999999999967e-02
5.174999999999999739e-02
1.087499999999999994e-01
7.774999999999999967e-02
1.034999999999999948e-01
6.224999999999999978e-02
5.700000000000000205e-02
5.174999999999999739e-02
7.249999999999999500e-02
9.324999999999999956e-02
7.774999999999999967e-02
1.087499999999999994e-01
7.249999999999999500e-02
8.275000000000000411e-02
6.725000000000000422e-02
4.649999999999999967e-02
9.324999999999999956e-02
6.725000000000000422e-02
8.275000000000000411e-02
7.774999999999999967e-02
1.034999999999999948e-01
9.324999999999999956e-02
9.850000000000000422e-02
7.249999999999999500e-02
6.725000000000000422e-02
8.799999999999999489e-02
7.774999999999999967e-02
6.725000000000000422e-02
5.700000000000000205e-02
9.850000000000000422e-02
8.275000000000000411e-02
6.224999999999999978e-02
8.799999999999999489e-02
8.799999999999999489e-02
5.174999999999999739e-02
7.774999999999999967e-02
4.649999999999999967e-02
3.624999999999999750e-02
4.150000000000000216e-02
5.700000000000000205e-02
3.099999999999999978e-02
5.174999999999999739e-02
5.174999999999999739e-02
4.649999999999999967e-02
1.087499999999999994e-01
1.242499999999999993e-01
4.649999999999999967e-02
3.624999999999999750e-02
5.174999999999999739e-02
4.150000000000000216e-02
3.099999999999999978e-02
5.174999999999999739e-02
4.649999999999999967e-02
6.725000000000000422e-02
4.649999999999999967e-02
6.725000000000000422e-02
4.649999999999999967e-02
6.224999999999999978e-02
2.174999999999999989e-01
2.952500000000000124e-01
3.262499999999999845e-01
3.574999999999999845e-01
5.799999999999999600e-01
5.490000000000000435e-01
4.764999999999999791e-01
4.505000000000000115e-01
2.745000000000000218e-01
3.004999999999999893e-01
2.899999999999999800e-01
3.262499999999999845e-01
2.797499999999999987e-01
2.434999999999999942e-01
6.007500000000000062e-01
4.557499999999999885e-01
8.080000000000000515e-01
1.419249999999999901e+00
6.474999999999999645e-01
5.645000000000000018e-01
1.710000000000000131e-01
1.864999999999999991e-01
6.577499999999999458e-01
2.020000000000000129e-01
1.710000000000000131e-01
4.402499999999999747e-01
5.074999999999999512e-01
2.590000000000000080e-01
3.987499999999999933e-01
2.122499999999999942e-01
8.649999999999999911e-01
4.764999999999999791e-01
7.872500000000000053e-01
2.382499999999999896e-01
3.315000000000000169e-01
3.160000000000000031e-01
2.330000000000000127e-01
1.917500000000000038e-01
9.167499999999999538e-01
5.024999999999999467e-01
9.477499999999999813e-01
8.442499999999999449e-01
6.524999999999999689e-01
1.554999999999999993e-01
1.605000000000000038e-01
3.315000000000000169e-01
7.199999999999999734e-01
5.905000000000000249e-01
6.630000000000000338e-01
1.268999999999999906e+00
9.114999999999999769e-01
1.051500000000000101e+00
8.804999999999999494e-01
6.682500000000000107e-01
7.664999999999999591e-01
5.697499999999999787e-01
1.025500000000000078e+00
5.074999999999999512e-01
3.107500000000000262e-01
2.537499999999999756e-01
5.749999999999999556e-01
8.649999999999999911e-01
5.127500000000000391e-01
7.820000000000000284e-01
4.662499999999999978e-01
6.837499999999999689e-01
1.554999999999999993e-01
1.192499999999999949e-01
1.295000000000000040e-01
1.242499999999999993e-01
2.642499999999999849e-01
8.275000000000000411e-02
1.347500000000000087e-01
2.590000000000000080e-01
2.692499999999999893e-01
2.174999999999999989e-01
2.849999999999999756e-01
2.849999999999999756e-01
2.020000000000000129e-01
2.174999999999999989e-01
3.212499999999999800e-01
3.729999999999999982e-01
5.905000000000000249e-01
4.817500000000000115e-01
3.054999999999999938e-01
2.797499999999999987e-01
3.054999999999999938e-01
2.484999999999999987e-01
4.972500000000000253e-01
3.885000000000000120e-01
3.832499999999999796e-01
4.299999999999999933e-01
6.320000000000000062e-01
2.174999999999999989e-01
4.402499999999999747e-01
4.142500000000000071e-01
6.422499999999999876e-01
3.107500000000000262e-01
4.194999999999999840e-01
5.852500000000000480e-01
1.144749999999999934e+00
1.605750000000000011e+00
1.211999999999999966e+00
1.512499999999999956e+00
2.190999999999999837e+00
1.289749999999999952e+00
1.020250000000000101e+00
5.232499999999999929e-01
3.574999999999999845e-01
2.692499999999999893e-01
1.087499999999999994e-01
3.004999999999999893e-01
2.590000000000000080e-01
2.537499999999999756e-01
8.275000000000000411e-02
1.502499999999999947e-01
3.832499999999999796e-01
4.349999999999999978e-01
1.657500000000000084e-01
3.160000000000000031e-01
4.649999999999999967e-02
-8.148500000000000298e+00
-3.549999999999999822e+00
2.293499999999999872e+00
-6.487000000000000099e+00
-6.000000000000000000e+00
5.157750000000000057e+00
1.652249999999999996e+00
2.280000000000000082e-01
-4.155999999999999694e+00
-1.809749999999999970e+00
8.156750000000000611e+00
-3.032249999999999890e+00
-2.994749999999999801e+00
-5.611500000000000377e+00
6.286999999999999922e+00
1.424500000000000099e+00
4.402499999999999747e-01
5.232499999999999929e-01
1.034999999999999948e-01
7.249999999999999500e-02
9.324999999999999956e-02
-1.798249999999999904e+00
8.033500000000000085e+00
2.537499999999999756e-01
2.122499999999999942e-01
2.020000000000000129e-01
1.812499999999999944e-01
1.502499999999999947e-01
7.774999999999999967e-02
5.700000000000000205e-02
9.850000000000000422e-02
6.725000000000000422e-02
8.275000000000000411e-02
6.224999999999999978e-02
2.849999999999999756e-01
1.502499999999999947e-01
3.212499999999999800e-01
3.004999999999999893e-01
3.729999999999999982e-01
7.147499999999999964e-01
4.817500000000000115e-01
3.780000000000000027e-01
2.434999999999999942e-01
1.502499999999999947e-01
8.799999999999999489e-02
1.449999999999999900e-01
8.547500000000000098e-01
7.095000000000000195e-01
2.642499999999999849e-01
2.280000000000000082e-01
3.107500000000000262e-01
-8.163999999999999702e+00
-8.009750000000000369e+00
-4.425000000000000044e-01
-4.006000000000000227e+00
3.168750000000000178e+00
1.460749999999999993e+00
2.412500000000000089e+00
7.758000000000000007e+00
4.520749999999999602e+00
1.196499999999999897e+00
2.280000000000000082e-01
1.397500000000000131e-01
1.657500000000000084e-01
1.034999999999999948e-01
2.642499999999999849e-01
1.605000000000000038e-01
4.649999999999999967e-02
1.759999999999999898e-01
2.745000000000000218e-01
1.864999999999999991e-01
1.140000000000000041e-01
1.554999999999999993e-01
1.192499999999999949e-01
8.275000000000000411e-02
9.324999999999999956e-02
8.275000000000000411e-02
5.174999999999999739e-02
2.122499999999999942e-01
7.774999999999999967e-02
2.745000000000000218e-01
1.192499999999999949e-01
1.759999999999999898e-01
7.249999999999999500e-02
4.150000000000000216e-02
1.917500000000000038e-01
6.725000000000000422e-02
2.899999999999999800e-01
7.249999999999999500e-02
2.072499999999999898e-01
7.249999999999999500e-02
2.280000000000000082e-01
7.249999999999999500e-02
1.087499999999999994e-01
8.799999999999999489e-02
7.249999999999999500e-02
7.249999999999999500e-02
7.774999999999999967e-02
6.725000000000000422e-02
1.295000000000000040e-01
1.657500000000000084e-01
9.324999999999999956e-02
1.087499999999999994e-01
1.295000000000000040e-01
6.725000000000000422e-02
5.174999999999999739e-02
1.242499999999999993e-01
6.725000000000000422e-02
5.700000000000000205e-02
5.700000000000000205e-02
5.174999999999999739e-02
6.725000000000000422e-02
5.174999999999999739e-02
1.242499999999999993e-01
4.150000000000000216e-02
1.295000000000000040e-01
2.227500000000000036e-01
1.605000000000000038e-01
2.434999999999999942e-01
6.725000000000000422e-02
5.700000000000000205e-02
8.275000000000000411e-02
5.174999999999999739e-02
5.700000000000000205e-02
6.224999999999999978e-02
5.700000000000000205e-02
5.174999999999999739e-02
9.324999999999999956e-02
1.242499999999999993e-01
6.725000000000000422e-02
8.275000000000000411e-02
1.502499999999999947e-01
1.192499999999999949e-01
1.554999999999999993e-01
2.174999999999999989e-01
2.020000000000000129e-01
2.280000000000000082e-01
1.710000000000000131e-01
2.072499999999999898e-01
2.072499999999999898e-01
1.967500000000000082e-01
3.469999999999999751e-01
6.725000000000000422e-02
3.262499999999999845e-01
1.140000000000000041e-01
1.759999999999999898e-01
3.367499999999999938e-01
6.224999999999999978e-02
4.649999999999999967e-02
8.799999999999999489e-02
1.554999999999999993e-01
1.034750000000000059e+00
-6.689000000000000057e+00
1.268000000000000016e+00
-7.532499999999999751e-01
-7.471000000000000085e+00
1.085499999999999909e+00
2.597999999999999865e+00
2.271749999999999936e+00
3.692000000000000171e+00
-7.072250000000000369e+00
3.545999999999999819e+00
-4.775000000000000078e-02
-7.440000000000000391e+00
3.180250000000000021e+00
1.196499999999999897e+00
1.347500000000000087e-01
1.034999999999999948e-01
4.150000000000000216e-02
8.799999999999999489e-02
6.725000000000000422e-02
4.649999999999999967e-02
6.224999999999999978e-02
3.624999999999999750e-02
4.649999999999999967e-02
5.700000000000000205e-02
5.700000000000000205e-02
6.725000000000000422e-02
8.275000000000000411e-02
5.174999999999999739e-02
4.150000000000000216e-02
5.700000000000000205e-02
8.799999999999999489e-02
5.174999999999999739e-02
4.150000000000000216e-02
5.174999999999999739e-02
6.224999999999999978e-02
6.224999999999999978e-02
4.150000000000000216e-02
5.174999999999999739e-02
6.224999999999999978e-02
7.249999999999999500e-02
5.785499999999999865e+00
-2.047000000000000153e+00
2.849999999999999756e-01
8.799999999999999489e-02
4.649999999999999967e-02
5.700000000000000205e-02
5.700000000000000205e-02
7.914250000000000007e+00
2.169249999999999901e+00
1.173750000000000071e+00
3.261000000000000121e+00
7.783750000000000391e+00
2.144249999999999989e+00
1.242499999999999993e-01
5.700000000000000205e-02
9.850000000000000422e-02
4.649999999999999967e-02
4.649999999999999967e-02
5.700000000000000205e-02
7.249999999999999500e-02
7.249999999999999500e-02
8.275000000000000411e-02
6.725000000000000422e-02
5.174999999999999739e-02
5.700000000000000205e-02
3.624999999999999750e-02
5.700000000000000205e-02
4.649999999999999967e-02
9.850000000000000422e-02
5.700000000000000205e-02
5.174999999999999739e-02
5.174999999999999739e-02
5.174999999999999739e-02
6.224999999999999978e-02
5.700000000000000205e-02
3.624999999999999750e-02
6.725000000000000422e-02
4.649999999999999967e-02
5.930500000000000327e+00
2.003499999999999837e+00
1.802499999999999936e-01
2.952500000000000124e-01
8.799999999999999489e-02
4.649999999999999967e-02
5.174999999999999739e-02
6.725000000000000422e-02
5.174999999999999739e-02
6.224999999999999978e-02
5.700000000000000205e-02
5.174999999999999739e-02
7.774999999999999967e-02
8.023250000000000881e+00
2.051000000000000156e+00
5.427499999999999547e-01
1.056750000000000078e+00
1.347500000000000087e-01
1.242499999999999993e-01
9.850000000000000422e-02
1.554999999999999993e-01
4.505000000000000115e-01
2.692499999999999893e-01
8.804999999999999494e-01
4.817500000000000115e-01
5.232499999999999929e-01
4.455000000000000071e-01
4.662499999999999978e-01
3.780000000000000027e-01
3.574999999999999845e-01
3.212499999999999800e-01
1.449999999999999900e-01
1.554999999999999993e-01
1.087499999999999994e-01
5.024999999999999467e-01
2.745000000000000218e-01
1.192499999999999949e-01
5.174999999999999739e-02
4.150000000000000216e-02
1.034999999999999948e-01
6.224999999999999978e-02
6.224999999999999978e-02
7.249999999999999500e-02
6.224999999999999978e-02
7.774999999999999967e-02
6.725000000000000422e-02
1.347500000000000087e-01
1.087499999999999994e-01
2.590000000000000080e-01
2.484999999999999987e-01
2.072499999999999898e-01
3.262499999999999845e-01
3.677500000000000213e-01
5.024999999999999467e-01
2.484999999999999987e-01
3.160000000000000031e-01
5.127500000000000391e-01
4.142500000000000071e-01
6.630000000000000338e-01
3.522500000000000075e-01
4.142500000000000071e-01
7.199999999999999734e-01
3.417499999999999982e-01
4.919999999999999929e-01
3.469999999999999751e-01
4.402499999999999747e-01
2.280000000000000082e-01
3.885000000000000120e-01
3.004999999999999893e-01
4.247500000000000164e-01
2.434999999999999942e-01
4.455000000000000071e-01
2.382499999999999896e-01
2.382499999999999896e-01
4.764999999999999791e-01
3.160000000000000031e-01
4.557499999999999885e-01
5.127500000000000391e-01
3.054999999999999938e-01
1.087499999999999994e-01
1.347500000000000087e-01
3.677500000000000213e-01
2.797499999999999987e-01
3.315000000000000169e-01
2.899999999999999800e-01
2.122499999999999942e-01
1.967500000000000082e-01
2.382499999999999896e-01
2.849999999999999756e-01
2.952500000000000124e-01
1.759999999999999898e-01
2.745000000000000218e-01
3.004999999999999893e-01
7.249999999999999500e-02
1.864999999999999991e-01
1.295000000000000040e-01
1.449999999999999900e-01
9.324999999999999956e-02
7.774999999999999967e-02
2.020000000000000129e-01
1.242499999999999993e-01
7.249999999999999500e-02
1.140000000000000041e-01
1.917500000000000038e-01
2.849999999999999756e-01
1.967500000000000082e-01
1.449999999999999900e-01
2.072499999999999898e-01
2.330000000000000127e-01
2.537499999999999756e-01
1.397500000000000131e-01
2.072499999999999898e-01
1.449999999999999900e-01
3.677500000000000213e-01
2.020000000000000129e-01
2.382499999999999896e-01
1.192499999999999949e-01
2.692499999999999893e-01
3.160000000000000031e-01
4.505000000000000115e-01
4.712500000000000022e-01
3.574999999999999845e-01
1.710000000000000131e-01
5.174999999999999739e-02
1.818000000000000060e+00
1.371499999999999941e+00
4.019250000000000433e+00
1.034999999999999948e-01
1.554999999999999993e-01
3.677500000000000213e-01
1.657500000000000084e-01
2.020000000000000129e-01
3.212499999999999800e-01
1.347500000000000087e-01
1.034999999999999948e-01
-8.148500000000000298e+00
1.102249999999999952e+00
5.007500000000000284e+00
4.200499999999999901e+00
6.577499999999999458e-01
2.280000000000000082e-01
3.677500000000000213e-01
1.554999999999999993e-01
6.725000000000000422e-02
8.275000000000000411e-02
2.174999999999999989e-01
2.434999999999999942e-01
3.367499999999999938e-01
2.745000000000000218e-01
1.917500000000000038e-01
5.074999999999999512e-01
1.759999999999999898e-01
1.554999999999999993e-01
2.849999999999999756e-01
4.869999999999999885e-01
4.247500000000000164e-01
4.247500000000000164e-01
1.917500000000000038e-01
4.247500000000000164e-01
1.087499999999999994e-01
3.937499999999999889e-01
-4.061749999999999972e+00
3.904250000000000220e+00
4.216249999999999609e+00
3.107500000000000262e-01
1.397500000000000131e-01
2.382499999999999896e-01
3.160000000000000031e-01
-4.367499999999999716e+00
-4.000750000000000028e+00
3.965500000000000025e+00
3.879500000000000171e+00
-2.053249999999999797e+00
-6.373000000000000220e+00
2.092499999999999805e+00
4.040000000000000258e-01
4.040000000000000258e-01
4.557499999999999885e-01
4.557499999999999885e-01
5.232499999999999929e-01
7.065000000000000391e+00
1.735249999999999959e+00
1.040999999999999925e+00
1.227500000000000036e+00
1.445000000000000062e+00
1.015249999999999986e+00
7.924999999999999822e-01
-2.963750000000000107e+00
1.802499999999999991e+00
1.118749999999999911e+00
4.396499999999999631e+00
7.089750000000000441e+00
2.366999999999999993e+00
2.045999999999999819e+00
2.258249999999999869e+00
2.160000000000000142e+00
2.248000000000000220e+00
2.263500000000000068e+00
2.330750000000000099e+00
2.325499999999999901e+00
2.429250000000000131e+00
2.512000000000000011e+00
2.615749999999999797e+00
2.667499999999999982e+00
2.750249999999999861e+00
2.631250000000000089e+00
2.465500000000000025e+00
2.082250000000000156e+00
1.714499999999999913e+00
1.398500000000000076e+00
1.564249999999999918e+00
1.875000000000000000e+00
2.170249999999999790e+00
2.144249999999999989e+00
2.082250000000000156e+00
2.030499999999999972e+00
2.123499999999999943e+00
2.196250000000000036e+00
2.268749999999999822e+00
2.330750000000000099e+00
2.491249999999999964e+00
2.372250000000000192e+00
2.470749999999999780e+00
2.460249999999999826e+00
2.501749999999999918e+00
2.470749999999999780e+00
2.082250000000000156e+00
3.547000000000000153e+00
1.507249999999999979e+00
6.215000000000000524e-01
6.630000000000000338e-01
2.434999999999999942e-01
