3.624999999999999750e-02
5.174999999999999739e-02
7.774999999999999967e-02
4.150000000000000216e-02
3.624999999999999750e-02
5.174999999999999739e-02
3.624999999999999750e-02
2.599999999999999881e-02
4.649999999999999967e-02
4.150000000000000216e-02
6.725000000000000422e-02
4.649999999999999967e-02
7.249999999999999500e-02
9.324999999999999956e-02
6.725000000000000422e-02
6.224999999999999978e-02
4.649999999999999967e-02
6.224999999999999978e-02
6.725000000000000422e-02
4.150000000000000216e-02
6.224999999999999978e-02
7.249999999999999500e-02
5.174999999999999739e-02
1.034999999999999948e-01
9.850000000000000422e-02
4.649999999999999967e-02
5.174999999999999739e-02
8.275000000000000411e-02
5.174999999999999739e-02
5.174999999999999739e-02
6.224999999999999978e-02
5.700000000000000205e-02
1.140000000000000041e-01
8.799999999999999489e-02
5.700000000000000205e-02
3.624999999999999750e-02
4.150000000000000216e-02
4.150000000000000216e-02
4.649999999999999967e-02
4.649999999999999967e-02
4.649999999999999967e-02
5.700000000000000205e-02
6.224999999999999978e-02
9.850000000000000422e-02
4.150000000000000216e-02
4.150000000000000216e-02
5.174999999999999739e-02
7.249999999999999500e-02
3.624999999999999750e-02
5.174999999999999739e-02
8.799999999999999489e-02
4.649999999999999967e-02
7.774999999999999967e-02
7.249999999999999500e-02
5.700000000000000205e-02
5.700000000000000205e-02
5.700000000000000205e-02
6.224999999999999978e-02
4.649999999999999967e-02
5.174999999999999739e-02
4.150000000000000216e-02
6.224999999999999978e-02
6.224999999999999978e-02
9.324999999999999956e-02
5.700000000000000205e-02
5.700000000000000205e-02
5.174999999999999739e-02
9.324999999999999956e-02
1.034999999999999948e-01
8.275000000000000411e-02
9.850000000000000422e-02
9.850000000000000422e-02
1.397500000000000131e-01
1.034999999999999948e-01
9.850000000000000422e-02
8.275000000000000411e-02
9.850000000000000422e-02
7.774999999999999967e-02
9.324999999999999956e-02
7.249999999999999500e-02
6.224999999999999978e-02
7.774999999999999967e-02
9.324999999999999956e-02
5.174999999999999739e-02
5.174999999999999739e-02
7.249999999999999500e-02
5.700000000000000205e-02
5.700000000000000205e-02
6.725000000000000422e-02
1.034999999999999948e-01
6.725000000000000422e-02
6.224999999999999978e-02
7.249999999999999500e-02
6.725000000000000422e-02
5.174999999999999739e-02
7.774999999999999967e-02
5.700000000000000205e-02
6.725000000000000422e-02
5.700000000000000205e-02
7.774999999999999967e-02
5.700000000000000205e-02
7.249999999999999500e-02
1.087499999999999994e-01
5.700000000000000205e-02
8.799999999999999489e-02
5.700000000000000205e-02
6.224999999999999978e-02
7.249999999999999500e-02
7.249999999999999500e-02
6.725000000000000422e-02
7.774999999999999967e-02
7.774999999999999967e-02
7.249999999999999500e-02
5.700000000000000205e-02
7.249999999999999500e-02
5.700000000000000205e-02
4.150000000000000216e-02
6.725000000000000422e-02
5.174999999999999739e-02
7.249999999999999500e-02
5.700000000000000205e-02
8.799999999999999489e-02
6.725000000000000422e-02
6.725000000000000422e-02
6.725000000000000422e-02
6.725000000000000422e-02
5.700000000000000205e-02
6.725000000000000422e-02
6.224999999999999978e-02
4.649999999999999967e-02
5.700000000000000205e-02
6.224999999999999978e-02
5.174999999999999739e-02
4.150000000000000216e-02
6.725000000000000422e-02
5.174999999999999739e-02
1.087499999999999994e-01
4.649999999999999967e-02
5.700000000000000205e-02
5.174999999999999739e-02
5.700000000000000205e-02
6.725000000000000422e-02
5.174999999999999739e-02
6.224999999999999978e-02
4.649999999999999967e-02
4.649999999999999967e-02
5.174999999999999739e-02
4.150000000000000216e-02
5.700000000000000205e-02
4.150000000000000216e-02
4.649999999999999967e-02
6.725000000000000422e-02
5.700000000000000205e-02
5.700000000000000205e-02
5.700000000000000205e-02
5.174999999999999739e-02
4.150000000000000216e-02
6.224999999999999978e-02
6.725000000000000422e-02
4.649999999999999967e-02
5.700000000000000205e-02
7.249999999999999500e-02
9.850000000000000422e-02
4.150000000000000216e-02
6.725000000000000422e-02
3.624999999999999750e-02
5.700000000000000205e-02
4.649999999999999967e-02
3.624999999999999750e-02
4.649999999999999967e-02
5.174999999999999739e-02
5.174999999999999739e-02
5.174999999999999739e-02
5.174999999999999739e-02
3.624999999999999750e-02
4.150000000000000216e-02
4.649999999999999967e-02
4.649999999999999967e-02
4.150000000000000216e-02
5.700000000000000205e-02
5.174999999999999739e-02
5.174999999999999739e-02
4.150000000000000216e-02
9.324999999999999956e-02
3.624999999999999750e-02
5.174999999999999739e-02
5.174999999999999739e-02
4.150000000000000216e-02
6.224999999999999978e-02
5.174999999999999739e-02
5.174999999999999739e-02
4.649999999999999967e-02
7.249999999999999500e-02
4.150000000000000216e-02
8.799999999999999489e-02
5.700000000000000205e-02
5.700000000000000205e-02
4.150000000000000216e-02
4.649999999999999967e-02
3.624999999999999750e-02
6.725000000000000422e-02
4.649999999999999967e-02
5.700000000000000205e-02
6.725000000000000422e-02
5.174999999999999739e-02
1.192499999999999949e-01
6.725000000000000422e-02
4.150000000000000216e-02
3.624999999999999750e-02
4.150000000000000216e-02
4.150000000000000216e-02
5.700000000000000205e-02
5.174999999999999739e-02
4.150000000000000216e-02
4.649999999999999967e-02
5.174999999999999739e-02
7.249999999999999500e-02
6.224999999999999978e-02
5.174999999999999739e-02
4.649999999999999967e-02
4.150000000000000216e-02
5.700000000000000205e-02
6.224999999999999978e-02
5.700000000000000205e-02
5.700000000000000205e-02
6.224999999999999978e-02
5.700000000000000205e-02
8.799999999999999489e-02
1.710000000000000131e-01
1.554999999999999993e-01
8.275000000000000411e-02
4.150000000000000216e-02
5.174999999999999739e-02
4.649999999999999967e-02
5.174999999999999739e-02
5.174999999999999739e-02
5.174999999999999739e-02
1.192499999999999949e-01
4.649999999999999967e-02
8.275000000000000411e-02
7.249999999999999500e-02
4.649999999999999967e-02
6.224999999999999978e-02
7.249999999999999500e-02
4.649999999999999967e-02
6.224999999999999978e-02
5.174999999999999739e-02
4.649999999999999967e-02
7.249999999999999500e-02
3.624999999999999750e-02
5.174999999999999739e-02
7.774999999999999967e-02
6.224999999999999978e-02
6.224999999999999978e-02
4.649999999999999967e-02
4.150000000000000216e-02
6.725000000000000422e-02
8.275000000000000411e-02
7.249999999999999500e-02
1.140000000000000041e-01
7.249999999999999500e-02
7.249999999999999500e-02
4.649999999999999967e-02
8.275000000000000411e-02
9.850000000000000422e-02
1.034999999999999948e-01
8.275000000000000411e-02
1.034999999999999948e-01
6.224999999999999978e-02
1.917500000000000038e-01
2.072499999999999898e-01
5.174999999999999739e-02
1.347500000000000087e-01
1.242499999999999993e-01
1.087499999999999994e-01
1.554999999999999993e-01
5.700000000000000205e-02
1.087499999999999994e-01
9.850000000000000422e-02
1.397500000000000131e-01
2.484999999999999987e-01
8.799999999999999489e-02
1.034999999999999948e-01
5.700000000000000205e-02
4.649999999999999967e-02
4.649999999999999967e-02
6.725000000000000422e-02
3.624999999999999750e-02
3.099999999999999978e-02
6.224999999999999978e-02
5.174999999999999739e-02
6.725000000000000422e-02
8.275000000000000411e-02
3.624999999999999750e-02
4.150000000000000216e-02
5.700000000000000205e-02
5.174999999999999739e-02
5.174999999999999739e-02
4.150000000000000216e-02
3.099999999999999978e-02
5.174999999999999739e-02
5.174999999999999739e-02
3.624999999999999750e-02
8.275000000000000411e-02
4.649999999999999967e-02
6.224999999999999978e-02
4.150000000000000216e-02
4.150000000000000216e-02
5.700000000000000205e-02
5.700000000000000205e-02
5.700000000000000205e-02
5.700000000000000205e-02
4.649999999999999967e-02
5.174999999999999739e-02
4.150000000000000216e-02
8.275000000000000411e-02
6.725000000000000422e-02
4.649999999999999967e-02
3.624999999999999750e-02
5.174999999999999739e-02
4.150000000000000216e-02
6.725000000000000422e-02
4.649999999999999967e-02
4.649999999999999967e-02
5.700000000000000205e-02
6.224999999999999978e-02
5.700000000000000205e-02
9.850000000000000422e-02
4.649999999999999967e-02
2.599999999999999881e-02
4.649999999999999967e-02
3.624999999999999750e-02
4.150000000000000216e-02
6.224999999999999978e-02
5.174999999999999739e-02
4.649999999999999967e-02
3.099999999999999978e-02
5.700000000000000205e-02
4.649999999999999967e-02
1.087499999999999994e-01
5.174999999999999739e-02
4.150000000000000216e-02
4.649999999999999967e-02
4.649999999999999967e-02
4.649999999999999967e-02
5.174999999999999739e-02
6.224999999999999978e-02
4.649999999999999967e-02
4.649999999999999967e-02
4.649999999999999967e-02
5.700000000000000205e-02
7.249999999999999500e-02
6.725000000000000422e-02
4.150000000000000216e-02
4.649999999999999967e-02
4.150000000000000216e-02
4.649999999999999967e-02
4.649999999999999967e-02
4.150000000000000216e-02
3.624999999999999750e-02
3.624999999999999750e-02
4.649999999999999967e-02
5.174999999999999739e-02
5.174999999999999739e-02
8.275000000000000411e-02
4.649999999999999967e-02
4.150000000000000216e-02
4.150000000000000216e-02
4.150000000000000216e-02
4.649999999999999967e-02
5.174999999999999739e-02
5.174999999999999739e-02
3.624999999999999750e-02
3.099999999999999978e-02
5.174999999999999739e-02
5.700000000000000205e-02
7.249999999999999500e-02
5.174999999999999739e-02
5.700000000000000205e-02
3.624999999999999750e-02
5.174999999999999739e-02
3.624999999999999750e-02
3.624999999999999750e-02
5.174999999999999739e-02
5.174999999999999739e-02
3.099999999999999978e-02
4.649999999999999967e-02
4.649999999999999967e-02
8.275000000000000411e-02
6.224999999999999978e-02
4.649999999999999967e-02
4.150000000000000216e-02
5.700000000000000205e-02
5.174999999999999739e-02
3.624999999999999750e-02
5.700000000000000205e-02
6.224999999999999978e-02
4.649999999999999967e-02
7.249999999999999500e-02
4.649999999999999967e-02
8.275000000000000411e-02
5.174999999999999739e-02
4.649999999999999967e-02
4.150000000000000216e-02
3.099999999999999978e-02
4.649999999999999967e-02
4.150000000000000216e-02
5.174999999999999739e-02
4.649999999999999967e-02
5.700000000000000205e-02
5.174999999999999739e-02
6.224999999999999978e-02
5.174999999999999739e-02
4.150000000000000216e-02
4.150000000000000216e-02
4.649999999999999967e-02
6.224999999999999978e-02
6.224999999999999978e-02
4.150000000000000216e-02
3.624999999999999750e-02
4.150000000000000216e-02
4.649999999999999967e-02
4.649999999999999967e-02
8.799999999999999489e-02
6.725000000000000422e-02
6.725000000000000422e-02
4.150000000000000216e-02
4.649999999999999967e-02
3.624999999999999750e-02
5.700000000000000205e-02
5.174999999999999739e-02
4.649999999999999967e-02
6.224999999999999978e-02
5.700000000000000205e-02
4.150000000000000216e-02
6.725000000000000422e-02
4.150000000000000216e-02
4.649999999999999967e-02
5.174999999999999739e-02
5.174999999999999739e-02
5.174999999999999739e-02
4.150000000000000216e-02
3.624999999999999750e-02
4.649999999999999967e-02
4.150000000000000216e-02
3.624999999999999750e-02
3.624999999999999750e-02
7.249999999999999500e-02
4.150000000000000216e-02
6.224999999999999978e-02
5.174999999999999739e-02
5.174999999999999739e-02
5.174999999999999739e-02
5.700000000000000205e-02
5.700000000000000205e-02
5.174999999999999739e-02
5.700000000000000205e-02
4.649999999999999967e-02
6.224999999999999978e-02
7.774999999999999967e-02
4.150000000000000216e-02
3.624999999999999750e-02
5.700000000000000205e-02
3.624999999999999750e-02
5.174999999999999739e-02
6.224999999999999978e-02
5.700000000000000205e-02
5.174999999999999739e-02
4.150000000000000216e-02
4.150000000000000216e-02
8.799999999999999489e-02
5.700000000000000205e-02
5.174999999999999739e-02
4.150000000000000216e-02
3.624999999999999750e-02
6.224999999999999978e-02
5.174999999999999739e-02
4.150000000000000216e-02
4.649999999999999967e-02
5.174999999999999739e-02
4.150000000000000216e-02
5.174999999999999739e-02
9.324999999999999956e-02
5.174999999999999739e-02
8.275000000000000411e-02
2.952500000000000124e-01
9.324999999999999956e-02
5.174999999999999739e-02
6.224999999999999978e-02
4.649999999999999967e-02
3.099999999999999978e-02
4.649999999999999967e-02
6.224999999999999978e-02
6.725000000000000422e-02
4.649999999999999967e-02
4.150000000000000216e-02
4.649999999999999967e-02
4.150000000000000216e-02
2.599999999999999881e-02
5.174999999999999739e-02
5.700000000000000205e-02
7.249999999999999500e-02
5.174999999999999739e-02
8.799999999999999489e-02
7.249999999999999500e-02
5.700000000000000205e-02
4.649999999999999967e-02
6.224999999999999978e-02
6.224999999999999978e-02
6.725000000000000422e-02
7.249999999999999500e-02
5.174999999999999739e-02
5.174999999999999739e-02
5.700000000000000205e-02
1.034999999999999948e-01
5.174999999999999739e-02
4.150000000000000216e-02
6.224999999999999978e-02
5.174999999999999739e-02
6.224999999999999978e-02
4.649999999999999967e-02
4.150000000000000216e-02
4.150000000000000216e-02
5.174999999999999739e-02
4.649999999999999967e-02
6.224999999999999978e-02
5.700000000000000205e-02
7.774999999999999967e-02
4.649999999999999967e-02
5.700000000000000205e-02
5.174999999999999739e-02
5.700000000000000205e-02
3.624999999999999750e-02
4.150000000000000216e-02
7.249999999999999500e-02
5.700000000000000205e-02
4.649999999999999967e-02
6.224999999999999978e-02
3.624999999999999750e-02
1.034999999999999948e-01
6.725000000000000422e-02
6.725000000000000422e-02
4.649999999999999967e-02
4.150000000000000216e-02
5.174999999999999739e-02
4.150000000000000216e-02
6.224999999999999978e-02
5.700000000000000205e-02
4.150000000000000216e-02
6.725000000000000422e-02
7.774999999999999967e-02
4.649999999999999967e-02
3.099999999999999978e-02
5.700000000000000205e-02
5.174999999999999739e-02
3.624999999999999750e-02
5.174999999999999739e-02
5.174999999999999739e-02
5.174999999999999739e-02
4.649999999999999967e-02
1.192499999999999949e-01
7.774999999999999967e-02
4.150000000000000216e-02
4.649999999999999967e-02
5.700000000000000205e-02
5.700000000000000205e-02
5.174999999999999739e-02
4.150000000000000216e-02
5.174999999999999739e-02
4.649999999999999967e-02
4.649999999999999967e-02
6.224999999999999978e-02
6.224999999999999978e-02
3.624999999999999750e-02
4.150000000000000216e-02
4.649999999999999967e-02
5.174999999999999739e-02
5.700000000000000205e-02
4.150000000000000216e-02
3.624999999999999750e-02
5.174999999999999739e-02
5.174999999999999739e-02
3.624999999999999750e-02
6.224999999999999978e-02
4.649999999999999967e-02
6.725000000000000422e-02
5.700000000000000205e-02
5.174999999999999739e-02
5.174999999999999739e-02
5.174999999999999739e-02
5.700000000000000205e-02
5.700000000000000205e-02
4.150000000000000216e-02
4.649999999999999967e-02
4.150000000000000216e-02
4.150000000000000216e-02
2.599999999999999881e-02
6.224999999999999978e-02
6.725000000000000422e-02
3.624999999999999750e-02
4.649999999999999967e-02
3.099999999999999978e-02
5.174999999999999739e-02
5.174999999999999739e-02
5.174999999999999739e-02
4.649999999999999967e-02
4.150000000000000216e-02
4.649999999999999967e-02
8.799999999999999489e-02
9.850000000000000422e-02
6.224999999999999978e-02
5.174999999999999739e-02
5.174999999999999739e-02
6.224999999999999978e-02
6.224999999999999978e-02
4.649999999999999967e-02
4.649999999999999967e-02
3.624999999999999750e-02
5.174999999999999739e-02
5.174999999999999739e-02
5.700000000000000205e-02
4.649999999999999967e-02
4.150000000000000216e-02
3.624999999999999750e-02
6.224999999999999978e-02
5.174999999999999739e-02
3.099999999999999978e-02
4.649999999999999967e-02
3.624999999999999750e-02
5.700000000000000205e-02
5.174999999999999739e-02
9.324999999999999956e-02
6.224999999999999978e-02
4.649999999999999967e-02
5.700000000000000205e-02
4.649999999999999967e-02
4.649999999999999967e-02
5.174999999999999739e-02
3.624999999999999750e-02
6.224999999999999978e-02
5.174999999999999739e-02
7.774999999999999967e-02
6.224999999999999978e-02
8.799999999999999489e-02
8.275000000000000411e-02
3.624999999999999750e-02
3.624999999999999750e-02
5.700000000000000205e-02
5.174999999999999739e-02
3.624999999999999750e-02
5.174999999999999739e-02
4.150000000000000216e-02
4.649999999999999967e-02
6.224999999999999978e-02
5.174999999999999739e-02
5.174999999999999739e-02
6.224999999999999978e-02
4.649999999999999967e-02
5.700000000000000205e-02
3.624999999999999750e-02
5.174999999999999739e-02
7.249999999999999500e-02
3.624999999999999750e-02
3.624999999999999750e-02
5.174999999999999739e-02
5.700000000000000205e-02
5.174999999999999739e-02
1.034999999999999948e-01
3.624999999999999750e-02
3.099999999999999978e-02
3.099999999999999978e-02
3.624999999999999750e-02
4.150000000000000216e-02
4.649999999999999967e-02
5.174999999999999739e-02
7.249999999999999500e-02
4.150000000000000216e-02
4.649999999999999967e-02
6.725000000000000422e-02
5.174999999999999739e-02
4.649999999999999967e-02
5.700000000000000205e-02
4.150000000000000216e-02
4.649999999999999967e-02
4.649999999999999967e-02
4.649999999999999967e-02
4.649999999999999967e-02
4.649999999999999967e-02
5.700000000000000205e-02
4.649999999999999967e-02
6.224999999999999978e-02
5.700000000000000205e-02
4.649999999999999967e-02
4.150000000000000216e-02
3.624999999999999750e-02
5.700000000000000205e-02
4.150000000000000216e-02
3.099999999999999978e-02
3.624999999999999750e-02
4.649999999999999967e-02
6.224999999999999978e-02
9.850000000000000422e-02
6.224999999999999978e-02
4.649999999999999967e-02
5.700000000000000205e-02
6.725000000000000422e-02
5.174999999999999739e-02
4.150000000000000216e-02
4.649999999999999967e-02
5.700000000000000205e-02
4.150000000000000216e-02
3.624999999999999750e-02
6.224999999999999978e-02
5.174999999999999739e-02
7.249999999999999500e-02
3.099999999999999978e-02
4.150000000000000216e-02
4.150000000000000216e-02
4.649999999999999967e-02
4.649999999999999967e-02
4.150000000000000216e-02
4.150000000000000216e-02
5.700000000000000205e-02
4.649999999999999967e-02
6.224999999999999978e-02
5.700000000000000205e-02
7.249999999999999500e-02
6.224999999999999978e-02
4.150000000000000216e-02
4.649999999999999967e-02
5.174999999999999739e-02
4.150000000000000216e-02
5.174999999999999739e-02
6.725000000000000422e-02
5.700000000000000205e-02
3.099999999999999978e-02
3.624999999999999750e-02
5.174999999999999739e-02
8.799999999999999489e-02
6.224999999999999978e-02
4.150000000000000216e-02
5.174999999999999739e-02
5.700000000000000205e-02
3.624999999999999750e-02
5.174999999999999739e-02
4.649999999999999967e-02
5.174999999999999739e-02
4.649999999999999967e-02
6.725000000000000422e-02
5.174999999999999739e-02
9.850000000000000422e-02
6.224999999999999978e-02
4.649999999999999967e-02
5.174999999999999739e-02
4.150000000000000216e-02
4.649999999999999967e-02
4.150000000000000216e-02
4.649999999999999967e-02
5.700000000000000205e-02
5.174999999999999739e-02
4.649999999999999967e-02
4.649999999999999967e-02
4.649999999999999967e-02
8.275000000000000411e-02
4.649999999999999967e-02
5.174999999999999739e-02
6.725000000000000422e-02
4.649999999999999967e-02
3.099999999999999978e-02
4.150000000000000216e-02
6.224999999999999978e-02
3.624999999999999750e-02
4.150000000000000216e-02
4.649999999999999967e-02
6.224999999999999978e-02
4.649999999999999967e-02
9.324999999999999956e-02
6.725000000000000422e-02
3.099999999999999978e-02
6.725000000000000422e-02
6.224999999999999978e-02
4.649999999999999967e-02
5.174999999999999739e-02
6.725000000000000422e-02
4.649999999999999967e-02
5.174999999999999739e-02
6.224999999999999978e-02
4.649999999999999967e-02
7.249999999999999500e-02
8.275000000000000411e-02
4.649999999999999967e-02
3.624999999999999750e-02
7.249999999999999500e-02
6.725000000000000422e-02
5.700000000000000205e-02
4.649999999999999967e-02
5.174999999999999739e-02
4.150000000000000216e-02
4.150000000000000216e-02
6.224999999999999978e-02
7.774999999999999967e-02
6.224999999999999978e-02
6.224999999999999978e-02
6.224999999999999978e-02
3.624999999999999750e-02
3.624999999999999750e-02
6.224999999999999978e-02
6.725000000000000422e-02
5.700000000000000205e-02
4.649999999999999967e-02
5.174999999999999739e-02
6.224999999999999978e-02
5.174999999999999739e-02
6.224999999999999978e-02
4.649999999999999967e-02
4.150000000000000216e-02
7.249999999999999500e-02
4.649999999999999967e-02
4.150000000000000216e-02
5.174999999999999739e-02
5.174999999999999739e-02
6.224999999999999978e-02
9.324999999999999956e-02
4.649999999999999967e-02
4.150000000000000216e-02
3.624999999999999750e-02
3.624999999999999750e-02
3.624999999999999750e-02
4.150000000000000216e-02
4.150000000000000216e-02
4.150000000000000216e-02
4.150000000000000216e-02
4.150000000000000216e-02
5.174999999999999739e-02
7.774999999999999967e-02
7.249999999999999500e-02
6.224999999999999978e-02
6.725000000000000422e-02
6.224999999999999978e-02
4.150000000000000216e-02
6.224999999999999978e-02
4.150000000000000216e-02
4.649999999999999967e-02
4.150000000000000216e-02
5.174999999999999739e-02
5.700000000000000205e-02
9.324999999999999956e-02
6.224999999999999978e-02
6.725000000000000422e-02
7.249999999999999500e-02
4.150000000000000216e-02
4.649999999999999967e-02
5.174999999999999739e-02
4.649999999999999967e-02
5.174999999999999739e-02
5.174999999999999739e-02
3.624999999999999750e-02
7.774999999999999967e-02
8.799999999999999489e-02
4.150000000000000216e-02
5.174999999999999739e-02
4.150000000000000216e-02
4.150000000000000216e-02
6.725000000000000422e-02
6.224999999999999978e-02
3.624999999999999750e-02
3.624999999999999750e-02
4.150000000000000216e-02
5.174999999999999739e-02
3.624999999999999750e-02
5.700000000000000205e-02
7.774999999999999967e-02
4.150000000000000216e-02
3.099999999999999978e-02
5.700000000000000205e-02
6.725000000000000422e-02
4.150000000000000216e-02
4.649999999999999967e-02
4.150000000000000216e-02
6.725000000000000422e-02
4.649999999999999967e-02
6.725000000000000422e-02
7.774999999999999967e-02
5.700000000000000205e-02
9.324999999999999956e-02
3.624999999999999750e-02
4.150000000000000216e-02
5.700000000000000205e-02
5.700000000000000205e-02
5.700000000000000205e-02
4.649999999999999967e-02
3.624999999999999750e-02
4.150000000000000216e-02
5.700000000000000205e-02
4.150000000000000216e-02
6.725000000000000422e-02
5.700000000000000205e-02
5.174999999999999739e-02
8.799999999999999489e-02
4.649999999999999967e-02
5.700000000000000205e-02
5.174999999999999739e-02
6.725000000000000422e-02
1.502499999999999947e-01
5.174999999999999739e-02
3.624999999999999750e-02
6.725000000000000422e-02
5.174999999999999739e-02
4.150000000000000216e-02
5.700000000000000205e-02
1.087499999999999994e-01
4.150000000000000216e-02
5.174999999999999739e-02
5.174999999999999739e-02
6.725000000000000422e-02
3.099999999999999978e-02
4.649999999999999967e-02
3.624999999999999750e-02
5.700000000000000205e-02
5.174999999999999739e-02
5.700000000000000205e-02
5.174999999999999739e-02
5.700000000000000205e-02
5.174999999999999739e-02
8.275000000000000411e-02
6.725000000000000422e-02
5.700000000000000205e-02
7.249999999999999500e-02
5.700000000000000205e-02
5.700000000000000205e-02
5.700000000000000205e-02
5.174999999999999739e-02
4.150000000000000216e-02
5.174999999999999739e-02
4.649999999999999967e-02
3.624999999999999750e-02
4.649999999999999967e-02
7.249999999999999500e-02
5.174999999999999739e-02
6.224999999999999978e-02
6.224999999999999978e-02
5.174999999999999739e-02
4.150000000000000216e-02
4.649999999999999967e-02
8.275000000000000411e-02
5.174999999999999739e-02
6.224999999999999978e-02
5.700000000000000205e-02
4.649999999999999967e-02
5.700000000000000205e-02
5.700000000000000205e-02
4.150000000000000216e-02
5.700000000000000205e-02
3.624999999999999750e-02
5.174999999999999739e-02
4.649999999999999967e-02
7.774999999999999967e-02
5.700000000000000205e-02
5.174999999999999739e-02
4.649999999999999967e-02
5.174999999999999739e-02
5.700000000000000205e-02
6.725000000000000422e-02
6.224999999999999978e-02
4.649999999999999967e-02
6.224999999999999978e-02
5.700000000000000205e-02
8.275000000000000411e-02
6.224999999999999978e-02
6.224999999999999978e-02
4.649999999999999967e-02
5.174999999999999739e-02
4.150000000000000216e-02
4.150000000000000216e-02
6.725000000000000422e-02
5.174999999999999739e-02
4.649999999999999967e-02
4.150000000000000216e-02
5.700000000000000205e-02
1.087499999999999994e-01
5.174999999999999739e-02
5.174999999999999739e-02
3.099999999999999978e-02
4.150000000000000216e-02
5.174999999999999739e-02
5.700000000000000205e-02
5.174999999999999739e-02
3.624999999999999750e-02
3.624999999999999750e-02
3.624999999999999750e-02
4.649999999999999967e-02
5.700000000000000205e-02
7.249999999999999500e-02
4.649999999999999967e-02
4.150000000000000216e-02
4.150000000000000216e-02
5.174999999999999739e-02
5.174999999999999739e-02
5.174999999999999739e-02
5.700000000000000205e-02
3.099999999999999978e-02
5.174999999999999739e-02
3.624999999999999750e-02
6.725000000000000422e-02
9.324999999999999956e-02
4.649999999999999967e-02
5.700000000000000205e-02
4.649999999999999967e-02
7.249999999999999500e-02
4.649999999999999967e-02
3.099999999999999978e-02
4.649999999999999967e-02
7.249999999999999500e-02
5.700000000000000205e-02
5.700000000000000205e-02
4.649999999999999967e-02
5.700000000000000205e-02
8.275000000000000411e-02
4.649999999999999967e-02
4.649999999999999967e-02
4.150000000000000216e-02
3.624999999999999750e-02
4.649999999999999967e-02
5.700000000000000205e-02
4.649999999999999967e-02
5.700000000000000205e-02
4.649999999999999967e-02
3.099999999999999978e-02
9.324999999999999956e-02
5.700000000000000205e-02
5.700000000000000205e-02
4.150000000000000216e-02
5.700000000000000205e-02
5.700000000000000205e-02
3.624999999999999750e-02
5.700000000000000205e-02
5.174999999999999739e-02
3.099999999999999978e-02
5.700000000000000205e-02
5.174999999999999739e-02
9.324999999999999956e-02
4.649999999999999967e-02
4.150000000000000216e-02
3.099999999999999978e-02
5.700000000000000205e-02
4.649999999999999967e-02
6.725000000000000422e-02
5.174999999999999739e-02
4.649999999999999967e-02
5.700000000000000205e-02
4.150000000000000216e-02
5.700000000000000205e-02
1.242499999999999993e-01
5.174999999999999739e-02
6.224999999999999978e-02
4.150000000000000216e-02
5.174999999999999739e-02
4.150000000000000216e-02
6.725000000000000422e-02
5.174999999999999739e-02
4.150000000000000216e-02
4.150000000000000216e-02
3.624999999999999750e-02
4.649999999999999967e-02
8.799999999999999489e-02
7.249999999999999500e-02
4.649999999999999967e-02
6.224999999999999978e-02
4.150000000000000216e-02
3.099999999999999978e-02
5.174999999999999739e-02
4.649999999999999967e-02
4.649999999999999967e-02
5.700000000000000205e-02
4.150000000000000216e-02
5.174999999999999739e-02
5.174999999999999739e-02
4.649999999999999967e-02
6.725000000000000422e-02
5.700000000000000205e-02
5.174999999999999739e-02
5.174999999999999739e-02
7.774999999999999967e-02
4.649999999999999967e-02
4.150000000000000216e-02
4.150000000000000216e-02
4.649999999999999967e-02
6.224999999999999978e-02
5.700000000000000205e-02
4.649999999999999967e-02
8.275000000000000411e-02
6.224999999999999978e-02
4.649999999999999967e-02
4.649999999999999967e-02
4.150000000000000216e-02
5.174999999999999739e-02
4.150000000000000216e-02
3.624999999999999750e-02
4.649999999999999967e-02
4.150000000000000216e-02
7.249999999999999500e-02
8.275000000000000411e-02
5.700000000000000205e-02
3.099999999999999978e-02
4.649999999999999967e-02
6.224999999999999978e-02
5.174999999999999739e-02
4.649999999999999967e-02
4.150000000000000216e-02
6.725000000000000422e-02
5.700000000000000205e-02
4.150000000000000216e-02
6.224999999999999978e-02
8.799999999999999489e-02
6.725000000000000422e-02
5.700000000000000205e-02
5.174999999999999739e-02
5.174999999999999739e-02
3.624999999999999750e-02
5.700000000000000205e-02
4.150000000000000216e-02
4.649999999999999967e-02
4.649999999999999967e-02
3.624999999999999750e-02
5.700000000000000205e-02
3.624999999999999750e-02
7.249999999999999500e-02
7.774999999999999967e-02
5.174999999999999739e-02
7.249999999999999500e-02
5.174999999999999739e-02
4.150000000000000216e-02
4.150000000000000216e-02
6.725000000000000422e-02
5.174999999999999739e-02
3.624999999999999750e-02
4.150000000000000216e-02
5.174999999999999739e-02
4.649999999999999967e-02
4.649999999999999967e-02
1.087499999999999994e-01
4.150000000000000216e-02
4.649999999999999967e-02
4.649999999999999967e-02
5.700000000000000205e-02
6.224999999999999978e-02
4.649999999999999967e-02
4.649999999999999967e-02
6.224999999999999978e-02
5.700000000000000205e-02
5.700000000000000205e-02
8.799999999999999489e-02
4.649999999999999967e-02
7.249999999999999500e-02
5.700000000000000205e-02
6.224999999999999978e-02
4.150000000000000216e-02
5.700000000000000205e-02
3.624999999999999750e-02
4.150000000000000216e-02
3.099999999999999978e-02
5.174999999999999739e-02
4.649999999999999967e-02
5.174999999999999739e-02
3.624999999999999750e-02
6.224999999999999978e-02
9.324999999999999956e-02
4.649999999999999967e-02
6.224999999999999978e-02
5.174999999999999739e-02
5.700000000000000205e-02
5.700000000000000205e-02
4.649999999999999967e-02
4.649999999999999967e-02
4.649999999999999967e-02
4.150000000000000216e-02
4.649999999999999967e-02
3.624999999999999750e-02
7.249999999999999500e-02
6.224999999999999978e-02
6.224999999999999978e-02
4.150000000000000216e-02
5.174999999999999739e-02
4.150000000000000216e-02
4.649999999999999967e-02
5.174999999999999739e-02
3.624999999999999750e-02
4.150000000000000216e-02
5.700000000000000205e-02
6.725000000000000422e-02
6.224999999999999978e-02
6.725000000000000422e-02
4.649999999999999967e-02
3.624999999999999750e-02
4.150000000000000216e-02
4.649999999999999967e-02
5.174999999999999739e-02
3.099999999999999978e-02
6.224999999999999978e-02
4.649999999999999967e-02
4.649999999999999967e-02
4.649999999999999967e-02
4.649999999999999967e-02
6.224999999999999978e-02
6.224999999999999978e-02
4.150000000000000216e-02
4.150000000000000216e-02
6.224999999999999978e-02
5.174999999999999739e-02
4.150000000000000216e-02
5.700000000000000205e-02
4.150000000000000216e-02
4.649999999999999967e-02
3.624999999999999750e-02
5.700000000000000205e-02
4.649999999999999967e-02
8.275000000000000411e-02
4.649999999999999967e-02
5.174999999999999739e-02
4.649999999999999967e-02
4.649999999999999967e-02
3.624999999999999750e-02
5.700000000000000205e-02
5.174999999999999739e-02
4.150000000000000216e-02
4.649999999999999967e-02
4.649999999999999967e-02
6.224999999999999978e-02
5.700000000000000205e-02
8.799999999999999489e-02
7.249999999999999500e-02
6.224999999999999978e-02
3.099999999999999978e-02
4.649999999999999967e-02
5.174999999999999739e-02
3.624999999999999750e-02
4.150000000000000216e-02
4.649999999999999967e-02
4.649999999999999967e-02
4.649999999999999967e-02
5.174999999999999739e-02
5.174999999999999739e-02
7.774999999999999967e-02
3.099999999999999978e-02
4.150000000000000216e-02
6.224999999999999978e-02
5.700000000000000205e-02
5.174999999999999739e-02
4.649999999999999967e-02
3.099999999999999978e-02
5.174999999999999739e-02
3.624999999999999750e-02
4.649999999999999967e-02
4.649999999999999967e-02
7.774999999999999967e-02
5.700000000000000205e-02
4.649999999999999967e-02
5.700000000000000205e-02
4.649999999999999967e-02
4.150000000000000216e-02
5.174999999999999739e-02
4.150000000000000216e-02
4.649999999999999967e-02
4.150000000000000216e-02
3.624999999999999750e-02
3.624999999999999750e-02
5.174999999999999739e-02
7.249999999999999500e-02
7.774999999999999967e-02
4.150000000000000216e-02
4.649999999999999967e-02
5.700000000000000205e-02
4.649999999999999967e-02
4.150000000000000216e-02
4.150000000000000216e-02
4.150000000000000216e-02
5.174999999999999739e-02
4.150000000000000216e-02
7.774999999999999967e-02
5.174999999999999739e-02
4.649999999999999967e-02
9.324999999999999956e-02
6.224999999999999978e-02
4.150000000000000216e-02
4.150000000000000216e-02
5.174999999999999739e-02
3.624999999999999750e-02
4.649999999999999967e-02
5.174999999999999739e-02
4.649999999999999967e-02
6.725000000000000422e-02
5.174999999999999739e-02
5.174999999999999739e-02
7.774999999999999967e-02
6.224999999999999978e-02
3.624999999999999750e-02
4.649999999999999967e-02
4.649999999999999967e-02
3.624999999999999750e-02
4.649999999999999967e-02
3.624999999999999750e-02
5.700000000000000205e-02
5.700000000000000205e-02
4.649999999999999967e-02
3.099999999999999978e-02
8.275000000000000411e-02
5.700000000000000205e-02
6.224999999999999978e-02
4.150000000000000216e-02
5.700000000000000205e-02
4.150000000000000216e-02
5.174999999999999739e-02
4.150000000000000216e-02
4.150000000000000216e-02
4.649999999999999967e-02
5.174999999999999739e-02
5.700000000000000205e-02
7.249999999999999500e-02
7.249999999999999500e-02
7.774999999999999967e-02
4.150000000000000216e-02
4.150000000000000216e-02
4.150000000000000216e-02
3.624999999999999750e-02
4.649999999999999967e-02
4.150000000000000216e-02
3.624999999999999750e-02
5.700000000000000205e-02
4.649999999999999967e-02
7.249999999999999500e-02
5.174999999999999739e-02
5.174999999999999739e-02
3.624999999999999750e-02
4.649999999999999967e-02
4.150000000000000216e-02
6.725000000000000422e-02
5.700000000000000205e-02
4.150000000000000216e-02
6.725000000000000422e-02
4.649999999999999967e-02
6.224999999999999978e-02
5.700000000000000205e-02
7.249999999999999500e-02
6.725000000000000422e-02
5.700000000000000205e-02
4.150000000000000216e-02
5.700000000000000205e-02
4.649999999999999967e-02
5.700000000000000205e-02
2.122499999999999942e-01
2.072499999999999898e-01
1.759999999999999898e-01
1.605000000000000038e-01
1.034999999999999948e-01
1.295000000000000040e-01
9.850000000000000422e-02
1.449999999999999900e-01
1.554999999999999993e-01
1.502499999999999947e-01
1.917500000000000038e-01
1.864999999999999991e-01
1.140000000000000041e-01
1.034999999999999948e-01
1.605000000000000038e-01
1.449999999999999900e-01
1.812499999999999944e-01
2.330000000000000127e-01
3.780000000000000027e-01
1.812499999999999944e-01
2.280000000000000082e-01
1.759999999999999898e-01
1.710000000000000131e-01
1.657500000000000084e-01
5.700000000000000205e-02
9.850000000000000422e-02
7.249999999999999500e-02
1.087499999999999994e-01
7.249999999999999500e-02
1.192499999999999949e-01
8.799999999999999489e-02
5.700000000000000205e-02
4.150000000000000216e-02
4.150000000000000216e-02
4.649999999999999967e-02
5.700000000000000205e-02
5.174999999999999739e-02
6.224999999999999978e-02
2.072499999999999898e-01
1.347500000000000087e-01
1.295000000000000040e-01
8.275000000000000411e-02
4.150000000000000216e-02
4.150000000000000216e-02
7.249999999999999500e-02
4.150000000000000216e-02
4.649999999999999967e-02
4.649999999999999967e-02
3.624999999999999750e-02
4.649999999999999967e-02
8.799999999999999489e-02
6.224999999999999978e-02
5.174999999999999739e-02
4.150000000000000216e-02
5.700000000000000205e-02
5.174999999999999739e-02
4.150000000000000216e-02
4.649999999999999967e-02
4.150000000000000216e-02
4.150000000000000216e-02
5.700000000000000205e-02
5.174999999999999739e-02
8.799999999999999489e-02
4.649999999999999967e-02
3.624999999999999750e-02
5.700000000000000205e-02
4.649999999999999967e-02
4.150000000000000216e-02
5.700000000000000205e-02
4.150000000000000216e-02
5.700000000000000205e-02
7.774999999999999967e-02
9.850000000000000422e-02
7.774999999999999967e-02
4.150000000000000216e-02
5.174999999999999739e-02
3.099999999999999978e-02
3.099999999999999978e-02
9.850000000000000422e-02
1.967500000000000082e-01
1.242499999999999993e-01
2.952500000000000124e-01
4.247500000000000164e-01
3.522500000000000075e-01
3.367499999999999938e-01
2.484999999999999987e-01
3.729999999999999982e-01
4.349999999999999978e-01
3.574999999999999845e-01
6.630000000000000338e-01
5.645000000000000018e-01
2.952500000000000124e-01
2.072499999999999898e-01
2.590000000000000080e-01
1.502499999999999947e-01
5.174999999999999739e-02
1.657500000000000084e-01
3.212499999999999800e-01
1.397500000000000131e-01
4.349999999999999978e-01
3.262499999999999845e-01
3.832499999999999796e-01
4.557499999999999885e-01
9.324999999999999956e-02
3.107500000000000262e-01
3.212499999999999800e-01
2.174999999999999989e-01
1.449999999999999900e-01
3.677500000000000213e-01
2.122499999999999942e-01
3.107500000000000262e-01
1.397500000000000131e-01
2.899999999999999800e-01
2.072499999999999898e-01
1.295000000000000040e-01
2.227500000000000036e-01
2.642499999999999849e-01
2.174999999999999989e-01
1.864999999999999991e-01
2.330000000000000127e-01
1.917500000000000038e-01
1.967500000000000082e-01
2.849999999999999756e-01
2.692499999999999893e-01
1.864999999999999991e-01
2.745000000000000218e-01
3.004999999999999893e-01
2.174999999999999989e-01
2.227500000000000036e-01
2.745000000000000218e-01
2.020000000000000129e-01
2.174999999999999989e-01
2.952500000000000124e-01
2.174999999999999989e-01
3.004999999999999893e-01
9.324999999999999956e-02
8.799999999999999489e-02
1.192499999999999949e-01
1.295000000000000040e-01
7.249999999999999500e-02
6.224999999999999978e-02
1.242499999999999993e-01
1.917500000000000038e-01
4.869999999999999885e-01
2.020000000000000129e-01
2.330000000000000127e-01
1.449999999999999900e-01
1.759999999999999898e-01
1.605000000000000038e-01
1.864999999999999991e-01
2.227500000000000036e-01
2.590000000000000080e-01
1.034999999999999948e-01
1.967500000000000082e-01
3.004999999999999893e-01
1.605000000000000038e-01
6.725000000000000422e-02
1.449999999999999900e-01
8.275000000000000411e-02
7.774999999999999967e-02
1.347500000000000087e-01
1.397500000000000131e-01
1.140000000000000041e-01
8.799999999999999489e-02
5.700000000000000205e-02
6.725000000000000422e-02
5.700000000000000205e-02
6.224999999999999978e-02
6.725000000000000422e-02
7.249999999999999500e-02
7.774999999999999967e-02
4.649999999999999967e-02
4.649999999999999967e-02
5.174999999999999739e-02
5.174999999999999739e-02
1.295000000000000040e-01
9.324999999999999956e-02
6.725000000000000422e-02
4.150000000000000216e-02
4.150000000000000216e-02
5.700000000000000205e-02
3.099999999999999978e-02
3.099999999999999978e-02
5.174999999999999739e-02
4.649999999999999967e-02
7.774999999999999967e-02
8.799999999999999489e-02
4.150000000000000216e-02
4.649999999999999967e-02
5.700000000000000205e-02
6.725000000000000422e-02
5.700000000000000205e-02
6.224999999999999978e-02
4.649999999999999967e-02
5.700000000000000205e-02
5.700000000000000205e-02
8.275000000000000411e-02
5.700000000000000205e-02
5.700000000000000205e-02
6.725000000000000422e-02
4.150000000000000216e-02
6.224999999999999978e-02
4.649999999999999967e-02
4.649999999999999967e-02
5.174999999999999739e-02
4.150000000000000216e-02
1.034999999999999948e-01
4.649999999999999967e-02
5.174999999999999739e-02
4.649999999999999967e-02
3.624999999999999750e-02
6.224999999999999978e-02
6.725000000000000422e-02
4.649999999999999967e-02
4.649999999999999967e-02
5.174999999999999739e-02
7.774999999999999967e-02
6.725000000000000422e-02
3.262499999999999845e-01
1.192499999999999949e-01
5.174999999999999739e-02
4.150000000000000216e-02
5.174999999999999739e-02
7.249999999999999500e-02
3.624999999999999750e-02
5.174999999999999739e-02
7.249999999999999500e-02
6.224999999999999978e-02
4.649999999999999967e-02
4.649999999999999967e-02
3.624999999999999750e-02
3.099999999999999978e-02
5.174999999999999739e-02
4.649999999999999967e-02
6.224999999999999978e-02
1.034999999999999948e-01
2.382499999999999896e-01
3.417499999999999982e-01
7.774999999999999967e-02
7.249999999999999500e-02
7.774999999999999967e-02
5.174999999999999739e-02
5.174999999999999739e-02
3.624999999999999750e-02
4.649999999999999967e-02
4.649999999999999967e-02
6.224999999999999978e-02
8.275000000000000411e-02
5.700000000000000205e-02
4.150000000000000216e-02
4.649999999999999967e-02
4.649999999999999967e-02
5.174999999999999739e-02
4.649999999999999967e-02
5.174999999999999739e-02
5.174999999999999739e-02
3.624999999999999750e-02
4.649999999999999967e-02
1.034999999999999948e-01
5.700000000000000205e-02
1.605000000000000038e-01
5.700000000000000205e-02
5.700000000000000205e-02
4.150000000000000216e-02
6.725000000000000422e-02
4.150000000000000216e-02
4.649999999999999967e-02
5.700000000000000205e-02
6.224999999999999978e-02
6.224999999999999978e-02
7.774999999999999967e-02
4.150000000000000216e-02
3.099999999999999978e-02
6.224999999999999978e-02
4.150000000000000216e-02
6.224999999999999978e-02
3.099999999999999978e-02
5.174999999999999739e-02
6.725000000000000422e-02
4.150000000000000216e-02
8.275000000000000411e-02
6.725000000000000422e-02
7.249999999999999500e-02
3.099999999999999978e-02
4.649999999999999967e-02
5.174999999999999739e-02
4.150000000000000216e-02
5.174999999999999739e-02
3.624999999999999750e-02
4.649999999999999967e-02
5.174999999999999739e-02
7.774999999999999967e-02
5.174999999999999739e-02
6.224999999999999978e-02
6.725000000000000422e-02
5.174999999999999739e-02
4.649999999999999967e-02
5.174999999999999739e-02
4.150000000000000216e-02
3.624999999999999750e-02
6.725000000000000422e-02
5.700000000000000205e-02
4.150000000000000216e-02
3.624999999999999750e-02
5.174999999999999739e-02
8.799999999999999489e-02
3.099999999999999978e-02
7.774999999999999967e-02
4.150000000000000216e-02
3.624999999999999750e-02
3.099999999999999978e-02
4.150000000000000216e-02
4.150000000000000216e-02
3.624999999999999750e-02
4.649999999999999967e-02
5.174999999999999739e-02
5.700000000000000205e-02
7.774999999999999967e-02
4.649999999999999967e-02
4.150000000000000216e-02
4.649999999999999967e-02
4.649999999999999967e-02
4.649999999999999967e-02
6.224999999999999978e-02
6.725000000000000422e-02
5.174999999999999739e-02
5.700000000000000205e-02
4.150000000000000216e-02
4.649999999999999967e-02
8.275000000000000411e-02
3.099999999999999978e-02
3.624999999999999750e-02
5.700000000000000205e-02
4.150000000000000216e-02
4.150000000000000216e-02
3.099999999999999978e-02
6.224999999999999978e-02
7.774999999999999967e-02
3.099999999999999978e-02
4.150000000000000216e-02
4.649999999999999967e-02
4.150000000000000216e-02
6.224999999999999978e-02
6.224999999999999978e-02
3.624999999999999750e-02
4.649999999999999967e-02
4.649999999999999967e-02
4.150000000000000216e-02
5.700000000000000205e-02
3.099999999999999978e-02
5.700000000000000205e-02
4.150000000000000216e-02
4.649999999999999967e-02
3.099999999999999978e-02
5.174999999999999739e-02
6.224999999999999978e-02
7.249999999999999500e-02
6.224999999999999978e-02
3.099999999999999978e-02
4.649999999999999967e-02
6.725000000000000422e-02
4.649999999999999967e-02
6.224999999999999978e-02
4.150000000000000216e-02
3.624999999999999750e-02
5.174999999999999739e-02
5.700000000000000205e-02
5.174999999999999739e-02
3.624999999999999750e-02
6.224999999999999978e-02
7.774999999999999967e-02
4.649999999999999967e-02
4.150000000000000216e-02
3.099999999999999978e-02
5.174999999999999739e-02
6.224999999999999978e-02
5.174999999999999739e-02
5.174999999999999739e-02
4.649999999999999967e-02
4.649999999999999967e-02
4.150000000000000216e-02
3.624999999999999750e-02
7.774999999999999967e-02
5.700000000000000205e-02
5.700000000000000205e-02
3.624999999999999750e-02
4.649999999999999967e-02
4.150000000000000216e-02
4.150000000000000216e-02
5.700000000000000205e-02
4.649999999999999967e-02
4.649999999999999967e-02
3.099999999999999978e-02
3.624999999999999750e-02
4.150000000000000216e-02
8.275000000000000411e-02
7.774999999999999967e-02
5.174999999999999739e-02
5.174999999999999739e-02
5.700000000000000205e-02
5.174999999999999739e-02
5.700000000000000205e-02
4.649999999999999967e-02
5.700000000000000205e-02
4.649999999999999967e-02
5.174999999999999739e-02
5.700000000000000205e-02
5.174999999999999739e-02
7.249999999999999500e-02
8.799999999999999489e-02
5.174999999999999739e-02
5.700000000000000205e-02
3.624999999999999750e-02
3.099999999999999978e-02
4.150000000000000216e-02
5.174999999999999739e-02
4.150000000000000216e-02
4.150000000000000216e-02
3.624999999999999750e-02
3.624999999999999750e-02
4.150000000000000216e-02
7.774999999999999967e-02
6.725000000000000422e-02
5.174999999999999739e-02
3.099999999999999978e-02
5.700000000000000205e-02
3.624999999999999750e-02
6.725000000000000422e-02
6.224999999999999978e-02
6.725000000000000422e-02
5.700000000000000205e-02
5.174999999999999739e-02
4.150000000000000216e-02
6.224999999999999978e-02
3.624999999999999750e-02
5.174999999999999739e-02
8.799999999999999489e-02
5.700000000000000205e-02
3.624999999999999750e-02
4.649999999999999967e-02
4.150000000000000216e-02
4.150000000000000216e-02
4.649999999999999967e-02
4.649999999999999967e-02
4.150000000000000216e-02
3.099999999999999978e-02
5.700000000000000205e-02
7.249999999999999500e-02
4.150000000000000216e-02
6.725000000000000422e-02
4.649999999999999967e-02
6.224999999999999978e-02
6.224999999999999978e-02
6.224999999999999978e-02
4.150000000000000216e-02
5.700000000000000205e-02
5.700000000000000205e-02
5.700000000000000205e-02
4.150000000000000216e-02
2.599999999999999881e-02
3.624999999999999750e-02
7.249999999999999500e-02
7.249999999999999500e-02
5.700000000000000205e-02
3.624999999999999750e-02
5.700000000000000205e-02
4.150000000000000216e-02
4.649999999999999967e-02
3.624999999999999750e-02
4.649999999999999967e-02
4.150000000000000216e-02
3.624999999999999750e-02
4.649999999999999967e-02
2.599999999999999881e-02
4.150000000000000216e-02
8.799999999999999489e-02
4.649999999999999967e-02
5.700000000000000205e-02
4.150000000000000216e-02
3.624999999999999750e-02
5.700000000000000205e-02
4.150000000000000216e-02
4.649999999999999967e-02
3.624999999999999750e-02
4.649999999999999967e-02
6.224999999999999978e-02
4.150000000000000216e-02
4.150000000000000216e-02
7.249999999999999500e-02
5.700000000000000205e-02
3.099999999999999978e-02
5.174999999999999739e-02
5.174999999999999739e-02
3.624999999999999750e-02
4.649999999999999967e-02
4.150000000000000216e-02
5.174999999999999739e-02
3.099999999999999978e-02
4.649999999999999967e-02
4.649999999999999967e-02
8.799999999999999489e-02
1.192499999999999949e-01
4.150000000000000216e-02
4.150000000000000216e-02
6.224999999999999978e-02
3.624999999999999750e-02
4.649999999999999967e-02
4.649999999999999967e-02
4.649999999999999967e-02
4.649999999999999967e-02
4.150000000000000216e-02
3.624999999999999750e-02
3.624999999999999750e-02
5.174999999999999739e-02
4.150000000000000216e-02
4.649999999999999967e-02
4.150000000000000216e-02
5.174999999999999739e-02
4.649999999999999967e-02
3.624999999999999750e-02
4.150000000000000216e-02
4.150000000000000216e-02
5.174999999999999739e-02
3.624999999999999750e-02
4.150000000000000216e-02
8.799999999999999489e-02
5.174999999999999739e-02
5.700000000000000205e-02
4.649999999999999967e-02
4.649999999999999967e-02
4.649999999999999967e-02
4.150000000000000216e-02
4.649999999999999967e-02
4.649999999999999967e-02
3.099999999999999978e-02
4.150000000000000216e-02
4.649999999999999967e-02
7.249999999999999500e-02
6.224999999999999978e-02
5.700000000000000205e-02
6.224999999999999978e-02
5.174999999999999739e-02
5.174999999999999739e-02
4.150000000000000216e-02
4.649999999999999967e-02
6.725000000000000422e-02
3.624999999999999750e-02
4.649999999999999967e-02
5.174999999999999739e-02
6.725000000000000422e-02
4.150000000000000216e-02
5.700000000000000205e-02
5.700000000000000205e-02
4.649999999999999967e-02
3.624999999999999750e-02
3.624999999999999750e-02
3.624999999999999750e-02
6.224999999999999978e-02
4.150000000000000216e-02
3.624999999999999750e-02
3.099999999999999978e-02
4.649999999999999967e-02
5.700000000000000205e-02
4.150000000000000216e-02
5.700000000000000205e-02
8.799999999999999489e-02
6.224999999999999978e-02
4.150000000000000216e-02
5.174999999999999739e-02
3.099999999999999978e-02
6.224999999999999978e-02
5.700000000000000205e-02
5.174999999999999739e-02
5.700000000000000205e-02
4.649999999999999967e-02
4.649999999999999967e-02
8.275000000000000411e-02
4.649999999999999967e-02
3.624999999999999750e-02
7.774999999999999967e-02
5.174999999999999739e-02
4.649999999999999967e-02
4.150000000000000216e-02
5.174999999999999739e-02
4.150000000000000216e-02
5.174999999999999739e-02
5.174999999999999739e-02
4.649999999999999967e-02
3.099999999999999978e-02
5.700000000000000205e-02
5.700000000000000205e-02
4.649999999999999967e-02
5.174999999999999739e-02
5.700000000000000205e-02
5.700000000000000205e-02
6.224999999999999978e-02
4.150000000000000216e-02
4.150000000000000216e-02
5.174999999999999739e-02
5.700000000000000205e-02
4.649999999999999967e-02
3.624999999999999750e-02
5.174999999999999739e-02
5.700000000000000205e-02
7.249999999999999500e-02
7.249999999999999500e-02
4.649999999999999967e-02
7.774999999999999967e-02
3.099999999999999978e-02
6.224999999999999978e-02
4.649999999999999967e-02
4.649999999999999967e-02
5.174999999999999739e-02
4.150000000000000216e-02
4.150000000000000216e-02
3.624999999999999750e-02
4.150000000000000216e-02
3.624999999999999750e-02
3.624999999999999750e-02
3.099999999999999978e-02
7.774999999999999967e-02
5.700000000000000205e-02
4.150000000000000216e-02
4.150000000000000216e-02
4.649999999999999967e-02
5.174999999999999739e-02
3.624999999999999750e-02
6.725000000000000422e-02
4.649999999999999967e-02
6.224999999999999978e-02
4.649999999999999967e-02
4.649999999999999967e-02
3.624999999999999750e-02
7.774999999999999967e-02
4.150000000000000216e-02
5.700000000000000205e-02
5.174999999999999739e-02
5.174999999999999739e-02
5.174999999999999739e-02
5.174999999999999739e-02
5.174999999999999739e-02
4.649999999999999967e-02
3.624999999999999750e-02
3.624999999999999750e-02
5.174999999999999739e-02
1.087499999999999994e-01
6.224999999999999978e-02
5.174999999999999739e-02
5.174999999999999739e-02
3.624999999999999750e-02
4.649999999999999967e-02
5.700000000000000205e-02
4.150000000000000216e-02
6.725000000000000422e-02
5.174999999999999739e-02
4.649999999999999967e-02
9.850000000000000422e-02
5.174999999999999739e-02
5.174999999999999739e-02
4.649999999999999967e-02
4.649999999999999967e-02
4.649999999999999967e-02
3.624999999999999750e-02
4.150000000000000216e-02
5.174999999999999739e-02
5.700000000000000205e-02
4.150000000000000216e-02
7.249999999999999500e-02
5.700000000000000205e-02
4.649999999999999967e-02
5.700000000000000205e-02
4.150000000000000216e-02
4.649999999999999967e-02
3.624999999999999750e-02
5.174999999999999739e-02
7.249999999999999500e-02
4.150000000000000216e-02
5.174999999999999739e-02
5.174999999999999739e-02
8.799999999999999489e-02
7.249999999999999500e-02
3.624999999999999750e-02
3.624999999999999750e-02
3.624999999999999750e-02
3.624999999999999750e-02
5.174999999999999739e-02
5.174999999999999739e-02
3.099999999999999978e-02
4.150000000000000216e-02
4.150000000000000216e-02
3.624999999999999750e-02
4.150000000000000216e-02
7.249999999999999500e-02
8.275000000000000411e-02
5.700000000000000205e-02
5.174999999999999739e-02
3.624999999999999750e-02
5.700000000000000205e-02
4.150000000000000216e-02
4.150000000000000216e-02
5.700000000000000205e-02
4.649999999999999967e-02
4.649999999999999967e-02
4.649999999999999967e-02
5.700000000000000205e-02
8.799999999999999489e-02
1.034999999999999948e-01
4.649999999999999967e-02
4.150000000000000216e-02
4.150000000000000216e-02
4.150000000000000216e-02
5.700000000000000205e-02
5.700000000000000205e-02
4.649999999999999967e-02
4.150000000000000216e-02
4.649999999999999967e-02
5.700000000000000205e-02
6.224999999999999978e-02
7.774999999999999967e-02
9.850000000000000422e-02
4.649999999999999967e-02
4.150000000000000216e-02
5.174999999999999739e-02
5.700000000000000205e-02
5.700000000000000205e-02
5.700000000000000205e-02
3.099999999999999978e-02
4.649999999999999967e-02
4.150000000000000216e-02
5.174999999999999739e-02
4.150000000000000216e-02
5.174999999999999739e-02
8.275000000000000411e-02
7.249999999999999500e-02
5.174999999999999739e-02
5.174999999999999739e-02
4.649999999999999967e-02
3.099999999999999978e-02
4.150000000000000216e-02
5.700000000000000205e-02
4.649999999999999967e-02
5.174999999999999739e-02
5.700000000000000205e-02
5.700000000000000205e-02
6.224999999999999978e-02
4.649999999999999967e-02
5.174999999999999739e-02
8.275000000000000411e-02
4.649999999999999967e-02
6.224999999999999978e-02
4.150000000000000216e-02
3.624999999999999750e-02
4.150000000000000216e-02
4.649999999999999967e-02
4.150000000000000216e-02
5.700000000000000205e-02
5.700000000000000205e-02
4.150000000000000216e-02
5.174999999999999739e-02
4.150000000000000216e-02
4.649999999999999967e-02
1.034999999999999948e-01
5.700000000000000205e-02
5.174999999999999739e-02
3.624999999999999750e-02
4.150000000000000216e-02
4.649999999999999967e-02
5.174999999999999739e-02
5.174999999999999739e-02
4.150000000000000216e-02
6.224999999999999978e-02
5.700000000000000205e-02
8.275000000000000411e-02
5.700000000000000205e-02
9.850000000000000422e-02
4.649999999999999967e-02
4.649999999999999967e-02
3.624999999999999750e-02
5.174999999999999739e-02
5.174999999999999739e-02
4.649999999999999967e-02
5.174999999999999739e-02
4.150000000000000216e-02
3.624999999999999750e-02
3.099999999999999978e-02
5.174999999999999739e-02
6.725000000000000422e-02
6.725000000000000422e-02
4.150000000000000216e-02
4.150000000000000216e-02
4.649999999999999967e-02
4.649999999999999967e-02
8.275000000000000411e-02
5.700000000000000205e-02
5.700000000000000205e-02
4.649999999999999967e-02
7.249999999999999500e-02
7.249999999999999500e-02
4.649999999999999967e-02
4.150000000000000216e-02
6.224999999999999978e-02
4.649999999999999967e-02
4.150000000000000216e-02
3.624999999999999750e-02
4.649999999999999967e-02
5.700000000000000205e-02
4.649999999999999967e-02
7.249999999999999500e-02
8.799999999999999489e-02
4.649999999999999967e-02
4.150000000000000216e-02
4.150000000000000216e-02
4.150000000000000216e-02
4.150000000000000216e-02
3.099999999999999978e-02
5.700000000000000205e-02
5.174999999999999739e-02
5.700000000000000205e-02
7.249999999999999500e-02
8.799999999999999489e-02
5.174999999999999739e-02
4.649999999999999967e-02
5.174999999999999739e-02
5.174999999999999739e-02
4.649999999999999967e-02
6.224999999999999978e-02
3.099999999999999978e-02
5.700000000000000205e-02
4.649999999999999967e-02
8.275000000000000411e-02
4.649999999999999967e-02
5.174999999999999739e-02
5.174999999999999739e-02
5.174999999999999739e-02
3.099999999999999978e-02
3.099999999999999978e-02
5.174999999999999739e-02
5.700000000000000205e-02
4.150000000000000216e-02
4.150000000000000216e-02
5.174999999999999739e-02
8.275000000000000411e-02
4.150000000000000216e-02
3.624999999999999750e-02
3.624999999999999750e-02
5.174999999999999739e-02
5.700000000000000205e-02
4.649999999999999967e-02
4.150000000000000216e-02
5.174999999999999739e-02
4.649999999999999967e-02
5.174999999999999739e-02
7.249999999999999500e-02
5.700000000000000205e-02
3.624999999999999750e-02
5.174999999999999739e-02
5.174999999999999739e-02
5.700000000000000205e-02
4.649999999999999967e-02
3.099999999999999978e-02
5.700000000000000205e-02
5.700000000000000205e-02
3.624999999999999750e-02
6.224999999999999978e-02
7.774999999999999967e-02
7.249999999999999500e-02
6.224999999999999978e-02
3.099999999999999978e-02
7.249999999999999500e-02
6.224999999999999978e-02
5.700000000000000205e-02
4.649999999999999967e-02
4.649999999999999967e-02
4.649999999999999967e-02
3.624999999999999750e-02
5.700000000000000205e-02
4.649999999999999967e-02
9.324999999999999956e-02
6.725000000000000422e-02
4.150000000000000216e-02
3.099999999999999978e-02
5.174999999999999739e-02
4.649999999999999967e-02
4.150000000000000216e-02
4.150000000000000216e-02
5.174999999999999739e-02
4.150000000000000216e-02
3.099999999999999978e-02
5.700000000000000205e-02
8.275000000000000411e-02
5.174999999999999739e-02
3.624999999999999750e-02
4.649999999999999967e-02
4.150000000000000216e-02
3.624999999999999750e-02
4.649999999999999967e-02
3.624999999999999750e-02
3.624999999999999750e-02
5.700000000000000205e-02
5.174999999999999739e-02
9.850000000000000422e-02
4.150000000000000216e-02
3.099999999999999978e-02
3.624999999999999750e-02
3.624999999999999750e-02
5.700000000000000205e-02
4.150000000000000216e-02
4.649999999999999967e-02
5.174999999999999739e-02
5.174999999999999739e-02
4.649999999999999967e-02
4.649999999999999967e-02
4.649999999999999967e-02
6.725000000000000422e-02
6.224999999999999978e-02
6.224999999999999978e-02
4.649999999999999967e-02
6.224999999999999978e-02
4.649999999999999967e-02
3.624999999999999750e-02
4.150000000000000216e-02
4.150000000000000216e-02
6.224999999999999978e-02
4.649999999999999967e-02
4.649999999999999967e-02
5.700000000000000205e-02
7.774999999999999967e-02
6.224999999999999978e-02
5.700000000000000205e-02
4.649999999999999967e-02
3.624999999999999750e-02
4.649999999999999967e-02
3.099999999999999978e-02
4.150000000000000216e-02
4.649999999999999967e-02
3.624999999999999750e-02
3.624999999999999750e-02
7.249999999999999500e-02
8.275000000000000411e-02
5.174999999999999739e-02
5.174999999999999739e-02
5.700000000000000205e-02
5.174999999999999739e-02
3.624999999999999750e-02
4.649999999999999967e-02
4.150000000000000216e-02
3.624999999999999750e-02
5.174999999999999739e-02
2.599999999999999881e-02
4.649999999999999967e-02
5.700000000000000205e-02
3.099999999999999978e-02
5.700000000000000205e-02
4.150000000000000216e-02
5.700000000000000205e-02
3.624999999999999750e-02
4.649999999999999967e-02
5.174999999999999739e-02
7.249999999999999500e-02
6.224999999999999978e-02
5.700000000000000205e-02
4.150000000000000216e-02
4.649999999999999967e-02
5.700000000000000205e-02
5.174999999999999739e-02
4.649999999999999967e-02
3.624999999999999750e-02
3.624999999999999750e-02
3.624999999999999750e-02
4.150000000000000216e-02
4.150000000000000216e-02
3.624999999999999750e-02
5.700000000000000205e-02
7.249999999999999500e-02
7.774999999999999967e-02
5.174999999999999739e-02
4.150000000000000216e-02
4.150000000000000216e-02
6.725000000000000422e-02
4.649999999999999967e-02
3.624999999999999750e-02
4.150000000000000216e-02
5.700000000000000205e-02
4.649999999999999967e-02
5.700000000000000205e-02
1.034999999999999948e-01
4.649999999999999967e-02
5.174999999999999739e-02
5.700000000000000205e-02
6.725000000000000422e-02
1.967500000000000082e-01
1.710000000000000131e-01
3.574999999999999845e-01
3.937499999999999889e-01
1.533250000000000002e+00
1.346749999999999892e+00
6.784999999999999920e-01
1.605000000000000038e-01
6.224999999999999978e-02
6.224999999999999978e-02
1.347500000000000087e-01
9.850000000000000422e-02
1.295000000000000040e-01
5.174999999999999739e-02
7.774999999999999967e-02
6.725000000000000422e-02
7.249999999999999500e-02
5.700000000000000205e-02
4.649999999999999967e-02
6.725000000000000422e-02
5.174999999999999739e-02
4.150000000000000216e-02
5.174999999999999739e-02
5.700000000000000205e-02
5.174999999999999739e-02
4.649999999999999967e-02
5.174999999999999739e-02
6.725000000000000422e-02
5.174999999999999739e-02
3.099999999999999978e-02
4.150000000000000216e-02
6.224999999999999978e-02
5.700000000000000205e-02
4.150000000000000216e-02
5.174999999999999739e-02
4.150000000000000216e-02
4.150000000000000216e-02
6.725000000000000422e-02
4.150000000000000216e-02
5.174999999999999739e-02
4.649999999999999967e-02
6.224999999999999978e-02
6.224999999999999978e-02
4.649999999999999967e-02
3.624999999999999750e-02
5.700000000000000205e-02
5.700000000000000205e-02
7.774999999999999967e-02
7.774999999999999967e-02
4.649999999999999967e-02
3.099999999999999978e-02
4.649999999999999967e-02
5.174999999999999739e-02
3.624999999999999750e-02
4.649999999999999967e-02
4.649999999999999967e-02
5.700000000000000205e-02
4.150000000000000216e-02
1.034999999999999948e-01
5.174999999999999739e-02
5.174999999999999739e-02
3.099999999999999978e-02
5.700000000000000205e-02
4.649999999999999967e-02
6.224999999999999978e-02
5.174999999999999739e-02
3.624999999999999750e-02
3.624999999999999750e-02
8.275000000000000411e-02
8.799999999999999489e-02
3.624999999999999750e-02
4.150000000000000216e-02
5.174999999999999739e-02
6.725000000000000422e-02
4.150000000000000216e-02
4.649999999999999967e-02
4.150000000000000216e-02
5.700000000000000205e-02
8.275000000000000411e-02
9.850000000000000422e-02
6.224999999999999978e-02
4.150000000000000216e-02
4.649999999999999967e-02
4.649999999999999967e-02
4.649999999999999967e-02
4.649999999999999967e-02
4.649999999999999967e-02
4.150000000000000216e-02
4.649999999999999967e-02
8.275000000000000411e-02
5.174999999999999739e-02
5.700000000000000205e-02
3.099999999999999978e-02
6.224999999999999978e-02
5.174999999999999739e-02
5.174999999999999739e-02
3.624999999999999750e-02
3.624999999999999750e-02
4.649999999999999967e-02
5.700000000000000205e-02
5.174999999999999739e-02
3.624999999999999750e-02
4.150000000000000216e-02
7.774999999999999967e-02
6.224999999999999978e-02
4.649999999999999967e-02
5.700000000000000205e-02
5.700000000000000205e-02
4.649999999999999967e-02
4.649999999999999967e-02
4.649999999999999967e-02
4.649999999999999967e-02
6.224999999999999978e-02
3.624999999999999750e-02
4.649999999999999967e-02
1.034999999999999948e-01
6.224999999999999978e-02
5.174999999999999739e-02
5.174999999999999739e-02
4.649999999999999967e-02
4.649999999999999967e-02
6.224999999999999978e-02
6.725000000000000422e-02
5.174999999999999739e-02
4.649999999999999967e-02
4.649999999999999967e-02
8.799999999999999489e-02
3.624999999999999750e-02
4.649999999999999967e-02
4.150000000000000216e-02
4.150000000000000216e-02
5.174999999999999739e-02
3.624999999999999750e-02
4.649999999999999967e-02
4.649999999999999967e-02
4.150000000000000216e-02
5.174999999999999739e-02
8.275000000000000411e-02
6.224999999999999978e-02
4.649999999999999967e-02
5.700000000000000205e-02
4.150000000000000216e-02
4.649999999999999967e-02
4.649999999999999967e-02
4.649999999999999967e-02
4.649999999999999967e-02
5.700000000000000205e-02
5.174999999999999739e-02
7.774999999999999967e-02
5.174999999999999739e-02
6.224999999999999978e-02
4.649999999999999967e-02
5.700000000000000205e-02
3.624999999999999750e-02
4.649999999999999967e-02
5.174999999999999739e-02
5.700000000000000205e-02
4.649999999999999967e-02
4.649999999999999967e-02
8.799999999999999489e-02
6.725000000000000422e-02
5.700000000000000205e-02
5.174999999999999739e-02
3.099999999999999978e-02
6.224999999999999978e-02
4.649999999999999967e-02
4.649999999999999967e-02
5.174999999999999739e-02
4.150000000000000216e-02
4.649999999999999967e-02
4.150000000000000216e-02
8.799999999999999489e-02
5.700000000000000205e-02
5.700000000000000205e-02
4.150000000000000216e-02
5.700000000000000205e-02
3.624999999999999750e-02
3.099999999999999978e-02
5.174999999999999739e-02
5.174999999999999739e-02
5.700000000000000205e-02
5.174999999999999739e-02
7.774999999999999967e-02
6.224999999999999978e-02
4.649999999999999967e-02
6.224999999999999978e-02
4.150000000000000216e-02
5.174999999999999739e-02
5.700000000000000205e-02
5.174999999999999739e-02
5.174999999999999739e-02
6.224999999999999978e-02
4.649999999999999967e-02
7.774999999999999967e-02
3.099999999999999978e-02
4.150000000000000216e-02
4.150000000000000216e-02
4.150000000000000216e-02
4.649999999999999967e-02
4.150000000000000216e-02
3.099999999999999978e-02
6.725000000000000422e-02
5.700000000000000205e-02
5.174999999999999739e-02
9.324999999999999956e-02
4.649999999999999967e-02
4.649999999999999967e-02
4.150000000000000216e-02
3.624999999999999750e-02
4.150000000000000216e-02
5.174999999999999739e-02
6.725000000000000422e-02
4.649999999999999967e-02
4.649999999999999967e-02
3.624999999999999750e-02
5.174999999999999739e-02
7.249999999999999500e-02
4.649999999999999967e-02
5.700000000000000205e-02
3.624999999999999750e-02
5.700000000000000205e-02
5.174999999999999739e-02
4.649999999999999967e-02
5.174999999999999739e-02
4.150000000000000216e-02
4.150000000000000216e-02
5.700000000000000205e-02
6.725000000000000422e-02
7.249999999999999500e-02
4.649999999999999967e-02
3.624999999999999750e-02
3.099999999999999978e-02
4.649999999999999967e-02
5.174999999999999739e-02
7.249999999999999500e-02
6.725000000000000422e-02
5.700000000000000205e-02
6.224999999999999978e-02
7.774999999999999967e-02
6.224999999999999978e-02
4.150000000000000216e-02
5.174999999999999739e-02
4.150000000000000216e-02
4.150000000000000216e-02
3.624999999999999750e-02
5.174999999999999739e-02
4.150000000000000216e-02
4.649999999999999967e-02
6.725000000000000422e-02
8.275000000000000411e-02
5.174999999999999739e-02
4.150000000000000216e-02
4.649999999999999967e-02
5.174999999999999739e-02
5.700000000000000205e-02
5.700000000000000205e-02
6.224999999999999978e-02
4.649999999999999967e-02
6.224999999999999978e-02
4.649999999999999967e-02
7.774999999999999967e-02
7.249999999999999500e-02
5.700000000000000205e-02
5.174999999999999739e-02
4.649999999999999967e-02
5.700000000000000205e-02
4.150000000000000216e-02
5.700000000000000205e-02
4.649999999999999967e-02
5.700000000000000205e-02
4.150000000000000216e-02
4.150000000000000216e-02
6.224999999999999978e-02
5.174999999999999739e-02
4.649999999999999967e-02
3.099999999999999978e-02
4.649999999999999967e-02
4.649999999999999967e-02
3.624999999999999750e-02
4.649999999999999967e-02
7.774999999999999967e-02
7.774999999999999967e-02
5.700000000000000205e-02
4.150000000000000216e-02
7.774999999999999967e-02
5.700000000000000205e-02
5.700000000000000205e-02
5.700000000000000205e-02
4.649999999999999967e-02
5.174999999999999739e-02
6.224999999999999978e-02
4.649999999999999967e-02
4.150000000000000216e-02
4.649999999999999967e-02
4.150000000000000216e-02
7.774999999999999967e-02
4.150000000000000216e-02
4.649999999999999967e-02
6.725000000000000422e-02
4.150000000000000216e-02
5.700000000000000205e-02
6.725000000000000422e-02
4.150000000000000216e-02
5.174999999999999739e-02
4.150000000000000216e-02
4.649999999999999967e-02
9.324999999999999956e-02
4.150000000000000216e-02
4.649999999999999967e-02
4.649999999999999967e-02
5.174999999999999739e-02
3.624999999999999750e-02
4.649999999999999967e-02
4.649999999999999967e-02
4.649999999999999967e-02
3.624999999999999750e-02
9.324999999999999956e-02
8.799999999999999489e-02
5.174999999999999739e-02
4.649999999999999967e-02
3.624999999999999750e-02
5.174999999999999739e-02
5.700000000000000205e-02
4.150000000000000216e-02
4.150000000000000216e-02
6.224999999999999978e-02
3.624999999999999750e-02
5.700000000000000205e-02
8.799999999999999489e-02
4.649999999999999967e-02
5.174999999999999739e-02
3.624999999999999750e-02
3.624999999999999750e-02
4.150000000000000216e-02
5.174999999999999739e-02
5.174999999999999739e-02
5.700000000000000205e-02
5.700000000000000205e-02
5.700000000000000205e-02
1.192499999999999949e-01
5.700000000000000205e-02
5.174999999999999739e-02
3.624999999999999750e-02
5.700000000000000205e-02
5.700000000000000205e-02
5.174999999999999739e-02
4.150000000000000216e-02
5.174999999999999739e-02
3.624999999999999750e-02
7.774999999999999967e-02
7.774999999999999967e-02
4.150000000000000216e-02
5.700000000000000205e-02
7.774999999999999967e-02
6.725000000000000422e-02
3.624999999999999750e-02
4.150000000000000216e-02
3.624999999999999750e-02
4.649999999999999967e-02
5.700000000000000205e-02
6.725000000000000422e-02
5.700000000000000205e-02
4.649999999999999967e-02
4.649999999999999967e-02
5.174999999999999739e-02
5.700000000000000205e-02
3.624999999999999750e-02
4.150000000000000216e-02
5.174999999999999739e-02
3.624999999999999750e-02
5.174999999999999739e-02
7.774999999999999967e-02
4.150000000000000216e-02
4.649999999999999967e-02
5.174999999999999739e-02
6.725000000000000422e-02
4.649999999999999967e-02
4.649999999999999967e-02
3.099999999999999978e-02
4.150000000000000216e-02
6.725000000000000422e-02
5.174999999999999739e-02
5.174999999999999739e-02
6.725000000000000422e-02
6.224999999999999978e-02
1.087499999999999994e-01
5.700000000000000205e-02
5.700000000000000205e-02
3.624999999999999750e-02
4.150000000000000216e-02
4.150000000000000216e-02
5.700000000000000205e-02
5.174999999999999739e-02
5.174999999999999739e-02
3.624999999999999750e-02
4.649999999999999967e-02
3.624999999999999750e-02
5.700000000000000205e-02
1.034999999999999948e-01
5.700000000000000205e-02
6.725000000000000422e-02
4.150000000000000216e-02
7.249999999999999500e-02
4.649999999999999967e-02
7.249999999999999500e-02
4.150000000000000216e-02
5.700000000000000205e-02
4.150000000000000216e-02
5.174999999999999739e-02
5.174999999999999739e-02
9.850000000000000422e-02
4.649999999999999967e-02
5.174999999999999739e-02
4.649999999999999967e-02
5.174999999999999739e-02
5.174999999999999739e-02
6.725000000000000422e-02
5.174999999999999739e-02
4.150000000000000216e-02
6.224999999999999978e-02
4.649999999999999967e-02
5.700000000000000205e-02
6.725000000000000422e-02
4.649999999999999967e-02
3.099999999999999978e-02
5.700000000000000205e-02
6.224999999999999978e-02
5.174999999999999739e-02
4.649999999999999967e-02
5.700000000000000205e-02
3.099999999999999978e-02
6.725000000000000422e-02
4.649999999999999967e-02
4.649999999999999967e-02
5.174999999999999739e-02
4.649999999999999967e-02
3.099999999999999978e-02
4.649999999999999967e-02
4.150000000000000216e-02
5.174999999999999739e-02
4.150000000000000216e-02
5.700000000000000205e-02
7.249999999999999500e-02
4.649999999999999967e-02
4.649999999999999967e-02
6.725000000000000422e-02
6.224999999999999978e-02
8.275000000000000411e-02
4.649999999999999967e-02
1.710000000000000131e-01
6.224999999999999978e-02
4.150000000000000216e-02
5.700000000000000205e-02
4.649999999999999967e-02
4.649999999999999967e-02
5.174999999999999739e-02
8.275000000000000411e-02
4.649999999999999967e-02
6.224999999999999978e-02
5.174999999999999739e-02
5.700000000000000205e-02
6.224999999999999978e-02
5.174999999999999739e-02
4.649999999999999967e-02
5.174999999999999739e-02
4.150000000000000216e-02
5.700000000000000205e-02
1.087499999999999994e-01
5.174999999999999739e-02
5.700000000000000205e-02
4.649999999999999967e-02
5.700000000000000205e-02
3.624999999999999750e-02
5.700000000000000205e-02
6.224999999999999978e-02
4.150000000000000216e-02
5.700000000000000205e-02
4.150000000000000216e-02
5.700000000000000205e-02
5.174999999999999739e-02
5.174999999999999739e-02
4.649999999999999967e-02
5.700000000000000205e-02
4.150000000000000216e-02
4.649999999999999967e-02
6.224999999999999978e-02
5.174999999999999739e-02
5.700000000000000205e-02
4.649999999999999967e-02
5.174999999999999739e-02
3.624999999999999750e-02
4.649999999999999967e-02
5.700000000000000205e-02
4.150000000000000216e-02
5.700000000000000205e-02
5.700000000000000205e-02
6.725000000000000422e-02
5.174999999999999739e-02
5.700000000000000205e-02
4.649999999999999967e-02
4.150000000000000216e-02
4.150000000000000216e-02
5.174999999999999739e-02
6.224999999999999978e-02
5.174999999999999739e-02
4.150000000000000216e-02
3.624999999999999750e-02
4.649999999999999967e-02
6.224999999999999978e-02
3.099999999999999978e-02
5.700000000000000205e-02
1.034999999999999948e-01
8.275000000000000411e-02
4.649999999999999967e-02
4.649999999999999967e-02
5.700000000000000205e-02
3.624999999999999750e-02
6.725000000000000422e-02
4.150000000000000216e-02
5.174999999999999739e-02
5.174999999999999739e-02
5.174999999999999739e-02
4.649999999999999967e-02
4.150000000000000216e-02
5.700000000000000205e-02
5.174999999999999739e-02
6.725000000000000422e-02
8.275000000000000411e-02
6.725000000000000422e-02
5.700000000000000205e-02
6.224999999999999978e-02
4.649999999999999967e-02
4.150000000000000216e-02
6.224999999999999978e-02
4.649999999999999967e-02
4.649999999999999967e-02
5.700000000000000205e-02
4.150000000000000216e-02
6.725000000000000422e-02
5.174999999999999739e-02
8.799999999999999489e-02
5.174999999999999739e-02
5.700000000000000205e-02
6.224999999999999978e-02
4.649999999999999967e-02
6.725000000000000422e-02
7.249999999999999500e-02
4.150000000000000216e-02
3.624999999999999750e-02
5.700000000000000205e-02
6.224999999999999978e-02
5.174999999999999739e-02
6.224999999999999978e-02
4.649999999999999967e-02
8.275000000000000411e-02
4.150000000000000216e-02
4.150000000000000216e-02
4.649999999999999967e-02
4.649999999999999967e-02
6.224999999999999978e-02
6.224999999999999978e-02
4.150000000000000216e-02
3.624999999999999750e-02
4.150000000000000216e-02
5.174999999999999739e-02
6.224999999999999978e-02
4.649999999999999967e-02
5.174999999999999739e-02
5.174999999999999739e-02
7.774999999999999967e-02
3.624999999999999750e-02
5.174999999999999739e-02
4.150000000000000216e-02
5.700000000000000205e-02
5.700000000000000205e-02
4.150000000000000216e-02
7.249999999999999500e-02
6.725000000000000422e-02
5.700000000000000205e-02
5.174999999999999739e-02
4.649999999999999967e-02
7.249999999999999500e-02
5.700000000000000205e-02
9.324999999999999956e-02
6.224999999999999978e-02
5.174999999999999739e-02
4.150000000000000216e-02
4.649999999999999967e-02
3.624999999999999750e-02
5.174999999999999739e-02
4.649999999999999967e-02
5.174999999999999739e-02
4.649999999999999967e-02
4.649999999999999967e-02
6.224999999999999978e-02
4.150000000000000216e-02
1.192499999999999949e-01
4.150000000000000216e-02
7.249999999999999500e-02
5.174999999999999739e-02
6.725000000000000422e-02
4.649999999999999967e-02
4.649999999999999967e-02
5.174999999999999739e-02
5.700000000000000205e-02
5.174999999999999739e-02
3.624999999999999750e-02
5.174999999999999739e-02
5.700000000000000205e-02
5.700000000000000205e-02
4.150000000000000216e-02
4.150000000000000216e-02
3.624999999999999750e-02
4.150000000000000216e-02
4.649999999999999967e-02
4.649999999999999967e-02
5.174999999999999739e-02
3.624999999999999750e-02
6.725000000000000422e-02
5.700000000000000205e-02
7.774999999999999967e-02
7.249999999999999500e-02
5.174999999999999739e-02
5.174999999999999739e-02
4.649999999999999967e-02
4.150000000000000216e-02
4.150000000000000216e-02
4.150000000000000216e-02
4.150000000000000216e-02
6.224999999999999978e-02
5.174999999999999739e-02
3.099999999999999978e-02
3.624999999999999750e-02
1.087499999999999994e-01
5.174999999999999739e-02
5.700000000000000205e-02
4.649999999999999967e-02
6.224999999999999978e-02
4.150000000000000216e-02
4.649999999999999967e-02
6.224999999999999978e-02
3.624999999999999750e-02
3.624999999999999750e-02
6.725000000000000422e-02
5.174999999999999739e-02
5.700000000000000205e-02
4.649999999999999967e-02
9.324999999999999956e-02
5.700000000000000205e-02
5.174999999999999739e-02
3.624999999999999750e-02
4.150000000000000216e-02
5.174999999999999739e-02
3.624999999999999750e-02
3.624999999999999750e-02
3.624999999999999750e-02
4.649999999999999967e-02
4.649999999999999967e-02
4.649999999999999967e-02
7.249999999999999500e-02
6.224999999999999978e-02
8.275000000000000411e-02
7.249999999999999500e-02
5.700000000000000205e-02
5.700000000000000205e-02
4.649999999999999967e-02
5.174999999999999739e-02
5.174999999999999739e-02
6.224999999999999978e-02
4.649999999999999967e-02
4.649999999999999967e-02
5.174999999999999739e-02
4.150000000000000216e-02
3.624999999999999750e-02
9.850000000000000422e-02
5.700000000000000205e-02
3.624999999999999750e-02
5.700000000000000205e-02
4.649999999999999967e-02
5.700000000000000205e-02
6.224999999999999978e-02
5.174999999999999739e-02
4.649999999999999967e-02
7.774999999999999967e-02
3.624999999999999750e-02
6.224999999999999978e-02
4.150000000000000216e-02
5.174999999999999739e-02
6.224999999999999978e-02
4.649999999999999967e-02
5.700000000000000205e-02
5.174999999999999739e-02
4.150000000000000216e-02
3.624999999999999750e-02
4.150000000000000216e-02
4.150000000000000216e-02
3.624999999999999750e-02
5.700000000000000205e-02
5.700000000000000205e-02
4.649999999999999967e-02
8.799999999999999489e-02
4.649999999999999967e-02
5.174999999999999739e-02
4.150000000000000216e-02
5.174999999999999739e-02
4.150000000000000216e-02
4.150000000000000216e-02
3.624999999999999750e-02
4.649999999999999967e-02
6.725000000000000422e-02
4.150000000000000216e-02
5.174999999999999739e-02
5.174999999999999739e-02
6.224999999999999978e-02
9.324999999999999956e-02
4.649999999999999967e-02
4.150000000000000216e-02
4.649999999999999967e-02
3.099999999999999978e-02
4.150000000000000216e-02
4.649999999999999967e-02
7.249999999999999500e-02
4.649999999999999967e-02
5.174999999999999739e-02
4.649999999999999967e-02
7.249999999999999500e-02
5.174999999999999739e-02
1.034999999999999948e-01
5.700000000000000205e-02
4.649999999999999967e-02
4.649999999999999967e-02
4.150000000000000216e-02
5.700000000000000205e-02
5.174999999999999739e-02
4.649999999999999967e-02
7.249999999999999500e-02
6.725000000000000422e-02
3.624999999999999750e-02
4.649999999999999967e-02
4.150000000000000216e-02
4.649999999999999967e-02
1.295000000000000040e-01
5.700000000000000205e-02
6.725000000000000422e-02
6.224999999999999978e-02
5.700000000000000205e-02
4.649999999999999967e-02
5.174999999999999739e-02
3.624999999999999750e-02
5.174999999999999739e-02
7.249999999999999500e-02
6.725000000000000422e-02
4.150000000000000216e-02
4.649999999999999967e-02
7.249999999999999500e-02
5.174999999999999739e-02
4.649999999999999967e-02
5.700000000000000205e-02
5.700000000000000205e-02
4.649999999999999967e-02
6.725000000000000422e-02
4.649999999999999967e-02
4.150000000000000216e-02
7.249999999999999500e-02
6.224999999999999978e-02
5.174999999999999739e-02
5.700000000000000205e-02
5.174999999999999739e-02
6.224999999999999978e-02
6.725000000000000422e-02
4.150000000000000216e-02
4.649999999999999967e-02
5.174999999999999739e-02
3.624999999999999750e-02
4.150000000000000216e-02
4.649999999999999967e-02
7.249999999999999500e-02
6.725000000000000422e-02
4.649999999999999967e-02
4.649999999999999967e-02
4.649999999999999967e-02
5.700000000000000205e-02
5.700000000000000205e-02
7.774999999999999967e-02
6.224999999999999978e-02
6.224999999999999978e-02
7.774999999999999967e-02
4.150000000000000216e-02
5.174999999999999739e-02
5.700000000000000205e-02
4.150000000000000216e-02
6.725000000000000422e-02
4.649999999999999967e-02
6.224999999999999978e-02
5.700000000000000205e-02
4.150000000000000216e-02
5.700000000000000205e-02
8.799999999999999489e-02
6.224999999999999978e-02
5.174999999999999739e-02
4.649999999999999967e-02
5.174999999999999739e-02
6.224999999999999978e-02
6.224999999999999978e-02
6.224999999999999978e-02
5.700000000000000205e-02
4.150000000000000216e-02
5.174999999999999739e-02
4.649999999999999967e-02
4.649999999999999967e-02
5.174999999999999739e-02
1.034999999999999948e-01
5.174999999999999739e-02
6.725000000000000422e-02
5.174999999999999739e-02
5.700000000000000205e-02
5.174999999999999739e-02
5.174999999999999739e-02
4.150000000000000216e-02
5.174999999999999739e-02
6.224999999999999978e-02
4.649999999999999967e-02
4.150000000000000216e-02
7.249999999999999500e-02
1.087499999999999994e-01
5.700000000000000205e-02
5.174999999999999739e-02
5.174999999999999739e-02
6.224999999999999978e-02
4.649999999999999967e-02
4.150000000000000216e-02
4.649999999999999967e-02
4.150000000000000216e-02
4.649999999999999967e-02
6.725000000000000422e-02
3.624999999999999750e-02
6.725000000000000422e-02
5.700000000000000205e-02
4.649999999999999967e-02
4.150000000000000216e-02
5.174999999999999739e-02
5.174999999999999739e-02
3.624999999999999750e-02
3.099999999999999978e-02
5.700000000000000205e-02
4.649999999999999967e-02
5.700000000000000205e-02
4.150000000000000216e-02
5.174999999999999739e-02
7.249999999999999500e-02
7.774999999999999967e-02
4.150000000000000216e-02
3.624999999999999750e-02
5.700000000000000205e-02
5.174999999999999739e-02
4.649999999999999967e-02
5.700000000000000205e-02
5.700000000000000205e-02
5.700000000000000205e-02
4.649999999999999967e-02
4.649999999999999967e-02
5.700000000000000205e-02
6.224999999999999978e-02
5.700000000000000205e-02
9.850000000000000422e-02
5.700000000000000205e-02
4.649999999999999967e-02
4.649999999999999967e-02
5.700000000000000205e-02
4.649999999999999967e-02
6.224999999999999978e-02
6.725000000000000422e-02
6.224999999999999978e-02
4.649999999999999967e-02
4.150000000000000216e-02
4.150000000000000216e-02
5.174999999999999739e-02
6.725000000000000422e-02
7.774999999999999967e-02
5.174999999999999739e-02
6.725000000000000422e-02
4.150000000000000216e-02
3.624999999999999750e-02
6.725000000000000422e-02
4.649999999999999967e-02
4.649999999999999967e-02
4.150000000000000216e-02
4.649999999999999967e-02
5.700000000000000205e-02
5.174999999999999739e-02
6.725000000000000422e-02
5.174999999999999739e-02
1.140000000000000041e-01
4.649999999999999967e-02
5.174999999999999739e-02
5.174999999999999739e-02
4.649999999999999967e-02
4.150000000000000216e-02
6.224999999999999978e-02
4.150000000000000216e-02
3.099999999999999978e-02
4.150000000000000216e-02
5.174999999999999739e-02
3.099999999999999978e-02
3.624999999999999750e-02
9.324999999999999956e-02
6.725000000000000422e-02
3.624999999999999750e-02
4.150000000000000216e-02
5.700000000000000205e-02
5.174999999999999739e-02
5.174999999999999739e-02
4.150000000000000216e-02
4.649999999999999967e-02
4.649999999999999967e-02
4.649999999999999967e-02
4.150000000000000216e-02
4.649999999999999967e-02
7.249999999999999500e-02
8.275000000000000411e-02
4.649999999999999967e-02
5.174999999999999739e-02
5.174999999999999739e-02
4.150000000000000216e-02
3.099999999999999978e-02
4.649999999999999967e-02
6.224999999999999978e-02
5.174999999999999739e-02
5.174999999999999739e-02
5.700000000000000205e-02
4.150000000000000216e-02
4.649999999999999967e-02
5.700000000000000205e-02
8.799999999999999489e-02
4.649999999999999967e-02
3.624999999999999750e-02
4.649999999999999967e-02
3.624999999999999750e-02
6.725000000000000422e-02
5.700000000000000205e-02
4.649999999999999967e-02
5.174999999999999739e-02
5.174999999999999739e-02
5.174999999999999739e-02
4.649999999999999967e-02
4.649999999999999967e-02
6.224999999999999978e-02
9.324999999999999956e-02
4.649999999999999967e-02
6.725000000000000422e-02
4.150000000000000216e-02
5.174999999999999739e-02
5.174999999999999739e-02
5.700000000000000205e-02
4.649999999999999967e-02
4.150000000000000216e-02
6.224999999999999978e-02
4.649999999999999967e-02
6.725000000000000422e-02
5.700000000000000205e-02
5.700000000000000205e-02
7.774999999999999967e-02
4.649999999999999967e-02
4.649999999999999967e-02
5.700000000000000205e-02
5.174999999999999739e-02
6.224999999999999978e-02
5.174999999999999739e-02
4.150000000000000216e-02
5.700000000000000205e-02
6.224999999999999978e-02
7.774999999999999967e-02
4.150000000000000216e-02
4.649999999999999967e-02
9.850000000000000422e-02
4.649999999999999967e-02
4.649999999999999967e-02
4.150000000000000216e-02
5.700000000000000205e-02
7.774999999999999967e-02
7.774999999999999967e-02
4.649999999999999967e-02
4.150000000000000216e-02
3.624999999999999750e-02
5.700000000000000205e-02
3.099999999999999978e-02
5.700000000000000205e-02
9.850000000000000422e-02
8.275000000000000411e-02
4.150000000000000216e-02
3.624999999999999750e-02
5.700000000000000205e-02
5.174999999999999739e-02
4.649999999999999967e-02
5.174999999999999739e-02
5.700000000000000205e-02
3.624999999999999750e-02
4.649999999999999967e-02
6.725000000000000422e-02
4.649999999999999967e-02
5.174999999999999739e-02
6.725000000000000422e-02
9.850000000000000422e-02
4.649999999999999967e-02
5.174999999999999739e-02
5.174999999999999739e-02
7.249999999999999500e-02
4.649999999999999967e-02
3.624999999999999750e-02
5.174999999999999739e-02
4.649999999999999967e-02
5.174999999999999739e-02
4.649999999999999967e-02
4.150000000000000216e-02
4.649999999999999967e-02
6.725000000000000422e-02
6.224999999999999978e-02
6.725000000000000422e-02
3.624999999999999750e-02
5.174999999999999739e-02
4.649999999999999967e-02
5.174999999999999739e-02
5.174999999999999739e-02
4.150000000000000216e-02
4.649999999999999967e-02
5.174999999999999739e-02
4.649999999999999967e-02
6.224999999999999978e-02
6.224999999999999978e-02
7.249999999999999500e-02
8.799999999999999489e-02
8.275000000000000411e-02
4.150000000000000216e-02
6.224999999999999978e-02
4.150000000000000216e-02
4.150000000000000216e-02
5.174999999999999739e-02
5.174999999999999739e-02
4.150000000000000216e-02
5.174999999999999739e-02
4.649999999999999967e-02
4.150000000000000216e-02
4.649999999999999967e-02
4.649999999999999967e-02
6.725000000000000422e-02
4.150000000000000216e-02
4.150000000000000216e-02
3.624999999999999750e-02
5.174999999999999739e-02
5.174999999999999739e-02
5.174999999999999739e-02
3.624999999999999750e-02
6.224999999999999978e-02
4.649999999999999967e-02
4.150000000000000216e-02
3.099999999999999978e-02
5.174999999999999739e-02
7.774999999999999967e-02
5.174999999999999739e-02
3.099999999999999978e-02
5.174999999999999739e-02
4.649999999999999967e-02
3.624999999999999750e-02
4.150000000000000216e-02
6.224999999999999978e-02
5.174999999999999739e-02
5.174999999999999739e-02
4.649999999999999967e-02
5.174999999999999739e-02
6.725000000000000422e-02
4.649999999999999967e-02
6.725000000000000422e-02
4.649999999999999967e-02
4.649999999999999967e-02
3.624999999999999750e-02
5.174999999999999739e-02
4.649999999999999967e-02
3.624999999999999750e-02
5.700000000000000205e-02
5.174999999999999739e-02
4.649999999999999967e-02
5.174999999999999739e-02
5.700000000000000205e-02
6.725000000000000422e-02
4.649999999999999967e-02
6.725000000000000422e-02
5.174999999999999739e-02
5.174999999999999739e-02
4.150000000000000216e-02
5.174999999999999739e-02
3.624999999999999750e-02
5.700000000000000205e-02
5.174999999999999739e-02
5.174999999999999739e-02
5.700000000000000205e-02
4.649999999999999967e-02
4.649999999999999967e-02
5.700000000000000205e-02
4.649999999999999967e-02
8.275000000000000411e-02
5.174999999999999739e-02
4.649999999999999967e-02
5.700000000000000205e-02
4.649999999999999967e-02
5.700000000000000205e-02
8.799999999999999489e-02
5.174999999999999739e-02
5.700000000000000205e-02
4.649999999999999967e-02
5.174999999999999739e-02
4.649999999999999967e-02
6.224999999999999978e-02
7.249999999999999500e-02
5.174999999999999739e-02
5.700000000000000205e-02
5.174999999999999739e-02
5.700000000000000205e-02
6.725000000000000422e-02
4.150000000000000216e-02
4.649999999999999967e-02
4.649999999999999967e-02
5.174999999999999739e-02
4.649999999999999967e-02
5.174999999999999739e-02
8.275000000000000411e-02
5.174999999999999739e-02
4.649999999999999967e-02
5.174999999999999739e-02
4.150000000000000216e-02
4.150000000000000216e-02
4.150000000000000216e-02
5.174999999999999739e-02
5.174999999999999739e-02
5.174999999999999739e-02
4.649999999999999967e-02
4.150000000000000216e-02
8.275000000000000411e-02
4.649999999999999967e-02
3.624999999999999750e-02
4.649999999999999967e-02
3.099999999999999978e-02
3.624999999999999750e-02
4.150000000000000216e-02
4.649999999999999967e-02
5.174999999999999739e-02
5.174999999999999739e-02
3.624999999999999750e-02
4.649999999999999967e-02
3.624999999999999750e-02
5.700000000000000205e-02
6.725000000000000422e-02
4.649999999999999967e-02
3.624999999999999750e-02
3.624999999999999750e-02
6.224999999999999978e-02
3.624999999999999750e-02
3.624999999999999750e-02
4.649999999999999967e-02
4.649999999999999967e-02
4.649999999999999967e-02
3.624999999999999750e-02
4.150000000000000216e-02
4.649999999999999967e-02
4.150000000000000216e-02
7.249999999999999500e-02
5.700000000000000205e-02
6.224999999999999978e-02
5.700000000000000205e-02
5.174999999999999739e-02
5.700000000000000205e-02
4.649999999999999967e-02
5.700000000000000205e-02
5.174999999999999739e-02
5.700000000000000205e-02
5.700000000000000205e-02
4.150000000000000216e-02
3.624999999999999750e-02
4.649999999999999967e-02
9.850000000000000422e-02
4.649999999999999967e-02
5.700000000000000205e-02
5.174999999999999739e-02
4.150000000000000216e-02
4.649999999999999967e-02
4.150000000000000216e-02
5.700000000000000205e-02
4.649999999999999967e-02
5.174999999999999739e-02
4.649999999999999967e-02
5.700000000000000205e-02
4.649999999999999967e-02
7.774999999999999967e-02
8.275000000000000411e-02
4.649999999999999967e-02
4.649999999999999967e-02
5.700000000000000205e-02
4.150000000000000216e-02
5.700000000000000205e-02
5.174999999999999739e-02
5.700000000000000205e-02
4.150000000000000216e-02
4.649999999999999967e-02
4.150000000000000216e-02
3.624999999999999750e-02
4.649999999999999967e-02
7.249999999999999500e-02
5.700000000000000205e-02
5.700000000000000205e-02
4.649999999999999967e-02
7.774999999999999967e-02
5.174999999999999739e-02
4.649999999999999967e-02
4.649999999999999967e-02
5.174999999999999739e-02
4.649999999999999967e-02
5.174999999999999739e-02
5.174999999999999739e-02
4.649999999999999967e-02
5.700000000000000205e-02
8.799999999999999489e-02
6.224999999999999978e-02
4.649999999999999967e-02
4.649999999999999967e-02
5.700000000000000205e-02
4.649999999999999967e-02
7.249999999999999500e-02
5.700000000000000205e-02
5.174999999999999739e-02
4.649999999999999967e-02
4.649999999999999967e-02
4.649999999999999967e-02
4.150000000000000216e-02
4.150000000000000216e-02
5.174999999999999739e-02
7.249999999999999500e-02
5.700000000000000205e-02
7.249999999999999500e-02
4.150000000000000216e-02
3.624999999999999750e-02
4.649999999999999967e-02
6.725000000000000422e-02
3.624999999999999750e-02
4.649999999999999967e-02
4.649999999999999967e-02
5.700000000000000205e-02
4.150000000000000216e-02
5.700000000000000205e-02
9.850000000000000422e-02
6.725000000000000422e-02
5.174999999999999739e-02
4.150000000000000216e-02
3.624999999999999750e-02
4.649999999999999967e-02
5.700000000000000205e-02
4.649999999999999967e-02
3.624999999999999750e-02
4.649999999999999967e-02
4.150000000000000216e-02
5.700000000000000205e-02
4.649999999999999967e-02
8.275000000000000411e-02
4.150000000000000216e-02
5.700000000000000205e-02
3.099999999999999978e-02
4.150000000000000216e-02
3.624999999999999750e-02
4.150000000000000216e-02
4.150000000000000216e-02
4.649999999999999967e-02
6.224999999999999978e-02
4.649999999999999967e-02
3.099999999999999978e-02
6.224999999999999978e-02
8.275000000000000411e-02
5.174999999999999739e-02
4.150000000000000216e-02
4.150000000000000216e-02
5.700000000000000205e-02
5.174999999999999739e-02
5.174999999999999739e-02
3.624999999999999750e-02
4.649999999999999967e-02
5.174999999999999739e-02
3.624999999999999750e-02
4.150000000000000216e-02
4.150000000000000216e-02
1.034999999999999948e-01
4.649999999999999967e-02
4.150000000000000216e-02
3.624999999999999750e-02
5.700000000000000205e-02
5.700000000000000205e-02
3.624999999999999750e-02
4.150000000000000216e-02
4.649999999999999967e-02
5.174999999999999739e-02
6.224999999999999978e-02
6.725000000000000422e-02
5.700000000000000205e-02
9.850000000000000422e-02
4.150000000000000216e-02
4.649999999999999967e-02
4.649999999999999967e-02
4.649999999999999967e-02
6.224999999999999978e-02
4.649999999999999967e-02
4.150000000000000216e-02
4.649999999999999967e-02
5.700000000000000205e-02
5.174999999999999739e-02
5.174999999999999739e-02
6.725000000000000422e-02
5.174999999999999739e-02
3.624999999999999750e-02
4.649999999999999967e-02
4.649999999999999967e-02
4.649999999999999967e-02
4.150000000000000216e-02
5.174999999999999739e-02
4.649999999999999967e-02
5.174999999999999739e-02
5.700000000000000205e-02
6.224999999999999978e-02
7.774999999999999967e-02
5.174999999999999739e-02
4.649999999999999967e-02
4.150000000000000216e-02
5.700000000000000205e-02
3.624999999999999750e-02
4.150000000000000216e-02
5.700000000000000205e-02
4.150000000000000216e-02
4.150000000000000216e-02
5.700000000000000205e-02
4.150000000000000216e-02
6.725000000000000422e-02
4.649999999999999967e-02
4.150000000000000216e-02
3.099999999999999978e-02
5.174999999999999739e-02
5.700000000000000205e-02
5.700000000000000205e-02
4.649999999999999967e-02
5.700000000000000205e-02
4.150000000000000216e-02
5.700000000000000205e-02
6.224999999999999978e-02
5.174999999999999739e-02
5.174999999999999739e-02
6.224999999999999978e-02
5.174999999999999739e-02
4.649999999999999967e-02
4.150000000000000216e-02
5.174999999999999739e-02
4.649999999999999967e-02
6.725000000000000422e-02
3.624999999999999750e-02
6.224999999999999978e-02
6.224999999999999978e-02
5.700000000000000205e-02
8.275000000000000411e-02
3.624999999999999750e-02
4.649999999999999967e-02
4.150000000000000216e-02
4.649999999999999967e-02
6.224999999999999978e-02
4.150000000000000216e-02
5.700000000000000205e-02
4.150000000000000216e-02
4.649999999999999967e-02
4.649999999999999967e-02
5.700000000000000205e-02
5.174999999999999739e-02
4.150000000000000216e-02
4.649999999999999967e-02
4.150000000000000216e-02
5.174999999999999739e-02
5.700000000000000205e-02
6.224999999999999978e-02
4.649999999999999967e-02
4.649999999999999967e-02
4.150000000000000216e-02
7.774999999999999967e-02
3.624999999999999750e-02
3.624999999999999750e-02
8.275000000000000411e-02
5.700000000000000205e-02
4.649999999999999967e-02
4.150000000000000216e-02
3.099999999999999978e-02
4.150000000000000216e-02
5.174999999999999739e-02
4.150000000000000216e-02
4.150000000000000216e-02
5.174999999999999739e-02
4.150000000000000216e-02
4.649999999999999967e-02
4.150000000000000216e-02
3.624999999999999750e-02
6.224999999999999978e-02
6.224999999999999978e-02
6.224999999999999978e-02
6.725000000000000422e-02
4.649999999999999967e-02
4.649999999999999967e-02
4.649999999999999967e-02
4.150000000000000216e-02
3.099999999999999978e-02
3.624999999999999750e-02
4.649999999999999967e-02
4.150000000000000216e-02
5.174999999999999739e-02
6.725000000000000422e-02
8.799999999999999489e-02
6.725000000000000422e-02
4.649999999999999967e-02
5.700000000000000205e-02
5.700000000000000205e-02
4.649999999999999967e-02
4.150000000000000216e-02
4.649999999999999967e-02
3.099999999999999978e-02
4.649999999999999967e-02
3.624999999999999750e-02
4.649999999999999967e-02
4.150000000000000216e-02
6.224999999999999978e-02
7.774999999999999967e-02
7.249999999999999500e-02
4.649999999999999967e-02
4.649999999999999967e-02
6.725000000000000422e-02
6.725000000000000422e-02
3.624999999999999750e-02
5.700000000000000205e-02
3.624999999999999750e-02
4.649999999999999967e-02
4.649999999999999967e-02
3.099999999999999978e-02
3.624999999999999750e-02
4.150000000000000216e-02
7.774999999999999967e-02
4.150000000000000216e-02
7.249999999999999500e-02
4.649999999999999967e-02
5.174999999999999739e-02
3.624999999999999750e-02
5.174999999999999739e-02
4.150000000000000216e-02
4.150000000000000216e-02
4.150000000000000216e-02
3.624999999999999750e-02
4.150000000000000216e-02
5.174999999999999739e-02
4.150000000000000216e-02
7.249999999999999500e-02
3.099999999999999978e-02
5.174999999999999739e-02
6.725000000000000422e-02
4.150000000000000216e-02
5.700000000000000205e-02
4.150000000000000216e-02
5.174999999999999739e-02
4.649999999999999967e-02
5.700000000000000205e-02
4.649999999999999967e-02
4.649999999999999967e-02
5.174999999999999739e-02
5.174999999999999739e-02
7.774999999999999967e-02
5.700000000000000205e-02
4.150000000000000216e-02
4.649999999999999967e-02
5.700000000000000205e-02
6.224999999999999978e-02
4.150000000000000216e-02
5.700000000000000205e-02
4.649999999999999967e-02
5.174999999999999739e-02
3.624999999999999750e-02
4.150000000000000216e-02
7.774999999999999967e-02
6.725000000000000422e-02
4.150000000000000216e-02
4.649999999999999967e-02
5.700000000000000205e-02
5.700000000000000205e-02
4.150000000000000216e-02
6.224999999999999978e-02
5.700000000000000205e-02
5.700000000000000205e-02
4.150000000000000216e-02
4.649999999999999967e-02
7.249999999999999500e-02
6.224999999999999978e-02
4.150000000000000216e-02
4.649999999999999967e-02
5.700000000000000205e-02
5.174999999999999739e-02
4.649999999999999967e-02
7.249999999999999500e-02
4.649999999999999967e-02
5.174999999999999739e-02
4.649999999999999967e-02
5.174999999999999739e-02
5.174999999999999739e-02
7.774999999999999967e-02
4.649999999999999967e-02
6.224999999999999978e-02
5.174999999999999739e-02
3.099999999999999978e-02
4.649999999999999967e-02
4.649999999999999967e-02
5.700000000000000205e-02
3.624999999999999750e-02
3.624999999999999750e-02
4.150000000000000216e-02
4.150000000000000216e-02
1.034999999999999948e-01
7.249999999999999500e-02
4.649999999999999967e-02
3.624999999999999750e-02
4.649999999999999967e-02
5.174999999999999739e-02
6.725000000000000422e-02
5.700000000000000205e-02
5.700000000000000205e-02
4.649999999999999967e-02
5.174999999999999739e-02
5.174999999999999739e-02
5.174999999999999739e-02
9.324999999999999956e-02
4.649999999999999967e-02
4.649999999999999967e-02
4.649999999999999967e-02
4.649999999999999967e-02
4.649999999999999967e-02
4.649999999999999967e-02
4.150000000000000216e-02
6.224999999999999978e-02
4.649999999999999967e-02
4.649999999999999967e-02
6.725000000000000422e-02
7.774999999999999967e-02
4.649999999999999967e-02
4.150000000000000216e-02
5.174999999999999739e-02
5.174999999999999739e-02
5.700000000000000205e-02
4.649999999999999967e-02
4.649999999999999967e-02
4.649999999999999967e-02
4.649999999999999967e-02
4.649999999999999967e-02
3.624999999999999750e-02
8.275000000000000411e-02
5.700000000000000205e-02
4.649999999999999967e-02
7.249999999999999500e-02
6.224999999999999978e-02
5.700000000000000205e-02
3.624999999999999750e-02
6.224999999999999978e-02
5.700000000000000205e-02
4.649999999999999967e-02
4.150000000000000216e-02
3.624999999999999750e-02
4.150000000000000216e-02
7.774999999999999967e-02
4.150000000000000216e-02
4.649999999999999967e-02
4.649999999999999967e-02
4.649999999999999967e-02
3.624999999999999750e-02
4.150000000000000216e-02
4.649999999999999967e-02
3.624999999999999750e-02
5.174999999999999739e-02
4.649999999999999967e-02
4.649999999999999967e-02
7.249999999999999500e-02
5.700000000000000205e-02
6.224999999999999978e-02
5.174999999999999739e-02
4.150000000000000216e-02
6.224999999999999978e-02
5.174999999999999739e-02
5.174999999999999739e-02
4.150000000000000216e-02
5.700000000000000205e-02
5.174999999999999739e-02
4.150000000000000216e-02
5.174999999999999739e-02
4.649999999999999967e-02
3.099999999999999978e-02
4.649999999999999967e-02
8.799999999999999489e-02
5.174999999999999739e-02
7.774999999999999967e-02
4.649999999999999967e-02
3.624999999999999750e-02
4.649999999999999967e-02
4.649999999999999967e-02
6.224999999999999978e-02
5.700000000000000205e-02
4.150000000000000216e-02
4.150000000000000216e-02
5.174999999999999739e-02
3.624999999999999750e-02
7.774999999999999967e-02
5.174999999999999739e-02
4.649999999999999967e-02
3.624999999999999750e-02
5.174999999999999739e-02
4.649999999999999967e-02
5.174999999999999739e-02
6.224999999999999978e-02
4.649999999999999967e-02
5.174999999999999739e-02
5.700000000000000205e-02
3.624999999999999750e-02
4.150000000000000216e-02
6.725000000000000422e-02
6.725000000000000422e-02
4.649999999999999967e-02
4.150000000000000216e-02
4.649999999999999967e-02
5.700000000000000205e-02
5.174999999999999739e-02
5.174999999999999739e-02
6.224999999999999978e-02
3.624999999999999750e-02
3.624999999999999750e-02
4.150000000000000216e-02
6.224999999999999978e-02
4.150000000000000216e-02
6.725000000000000422e-02
4.649999999999999967e-02
4.649999999999999967e-02
5.700000000000000205e-02
4.150000000000000216e-02
4.150000000000000216e-02
4.150000000000000216e-02
3.099999999999999978e-02
4.150000000000000216e-02
3.624999999999999750e-02
4.649999999999999967e-02
4.150000000000000216e-02
5.700000000000000205e-02
5.700000000000000205e-02
6.725000000000000422e-02
5.174999999999999739e-02
6.224999999999999978e-02
4.649999999999999967e-02
5.174999999999999739e-02
4.150000000000000216e-02
6.224999999999999978e-02
3.624999999999999750e-02
4.649999999999999967e-02
4.150000000000000216e-02
4.150000000000000216e-02
5.174999999999999739e-02
7.249999999999999500e-02
8.275000000000000411e-02
4.150000000000000216e-02
5.174999999999999739e-02
4.150000000000000216e-02
5.174999999999999739e-02
5.174999999999999739e-02
4.150000000000000216e-02
3.624999999999999750e-02
4.150000000000000216e-02
4.150000000000000216e-02
3.099999999999999978e-02
8.799999999999999489e-02
6.224999999999999978e-02
2.599999999999999881e-02
3.099999999999999978e-02
4.649999999999999967e-02
6.224999999999999978e-02
5.174999999999999739e-02
4.649999999999999967e-02
4.649999999999999967e-02
4.150000000000000216e-02
3.624999999999999750e-02
7.774999999999999967e-02
5.700000000000000205e-02
7.249999999999999500e-02
6.725000000000000422e-02
4.649999999999999967e-02
5.700000000000000205e-02
3.624999999999999750e-02
4.649999999999999967e-02
6.224999999999999978e-02
4.649999999999999967e-02
4.150000000000000216e-02
8.799999999999999489e-02
6.224999999999999978e-02
4.150000000000000216e-02
5.174999999999999739e-02
4.649999999999999967e-02
4.150000000000000216e-02
5.174999999999999739e-02
4.649999999999999967e-02
4.150000000000000216e-02
7.249999999999999500e-02
4.150000000000000216e-02
4.150000000000000216e-02
4.649999999999999967e-02
7.774999999999999967e-02
4.150000000000000216e-02
4.150000000000000216e-02
3.624999999999999750e-02
3.624999999999999750e-02
5.700000000000000205e-02
5.174999999999999739e-02
4.649999999999999967e-02
4.649999999999999967e-02
5.700000000000000205e-02
6.224999999999999978e-02
6.725000000000000422e-02
8.275000000000000411e-02
5.700000000000000205e-02
4.649999999999999967e-02
3.624999999999999750e-02
5.174999999999999739e-02
4.649999999999999967e-02
7.249999999999999500e-02
8.275000000000000411e-02
6.224999999999999978e-02
5.174999999999999739e-02
4.649999999999999967e-02
4.150000000000000216e-02
5.174999999999999739e-02
9.324999999999999956e-02
5.700000000000000205e-02
5.174999999999999739e-02
3.624999999999999750e-02
5.174999999999999739e-02
4.649999999999999967e-02
6.224999999999999978e-02
4.649999999999999967e-02
3.099999999999999978e-02
4.150000000000000216e-02
4.150000000000000216e-02
4.649999999999999967e-02
5.700000000000000205e-02
5.174999999999999739e-02
4.150000000000000216e-02
6.224999999999999978e-02
4.649999999999999967e-02
4.150000000000000216e-02
3.624999999999999750e-02
6.224999999999999978e-02
4.150000000000000216e-02
4.150000000000000216e-02
5.174999999999999739e-02
3.624999999999999750e-02
5.174999999999999739e-02
6.224999999999999978e-02
4.649999999999999967e-02
4.649999999999999967e-02
3.624999999999999750e-02
7.774999999999999967e-02
6.725000000000000422e-02
4.150000000000000216e-02
4.649999999999999967e-02
3.099999999999999978e-02
5.700000000000000205e-02
5.174999999999999739e-02
5.174999999999999739e-02
3.624999999999999750e-02
4.150000000000000216e-02
5.700000000000000205e-02
5.174999999999999739e-02
5.174999999999999739e-02
5.700000000000000205e-02
7.249999999999999500e-02
6.725000000000000422e-02
3.624999999999999750e-02
4.649999999999999967e-02
4.649999999999999967e-02
5.700000000000000205e-02
4.150000000000000216e-02
5.700000000000000205e-02
4.649999999999999967e-02
5.174999999999999739e-02
4.649999999999999967e-02
4.649999999999999967e-02
4.649999999999999967e-02
7.249999999999999500e-02
1.034999999999999948e-01
5.174999999999999739e-02
4.150000000000000216e-02
6.725000000000000422e-02
6.725000000000000422e-02
4.150000000000000216e-02
5.174999999999999739e-02
5.174999999999999739e-02
4.649999999999999967e-02
4.150000000000000216e-02
4.150000000000000216e-02
6.224999999999999978e-02
4.150000000000000216e-02
6.725000000000000422e-02
3.624999999999999750e-02
5.174999999999999739e-02
5.700000000000000205e-02
4.649999999999999967e-02
3.624999999999999750e-02
4.649999999999999967e-02
4.649999999999999967e-02
5.174999999999999739e-02
6.224999999999999978e-02
5.174999999999999739e-02
3.624999999999999750e-02
3.099999999999999978e-02
6.224999999999999978e-02
9.850000000000000422e-02
3.624999999999999750e-02
3.099999999999999978e-02
4.649999999999999967e-02
4.649999999999999967e-02
4.649999999999999967e-02
4.150000000000000216e-02
5.174999999999999739e-02
3.624999999999999750e-02
4.649999999999999967e-02
4.649999999999999967e-02
4.649999999999999967e-02
4.150000000000000216e-02
6.224999999999999978e-02
7.774999999999999967e-02
5.174999999999999739e-02
6.725000000000000422e-02
4.649999999999999967e-02
4.150000000000000216e-02
4.649999999999999967e-02
3.624999999999999750e-02
5.700000000000000205e-02
5.174999999999999739e-02
6.224999999999999978e-02
6.224999999999999978e-02
4.150000000000000216e-02
8.275000000000000411e-02
6.224999999999999978e-02
4.150000000000000216e-02
4.649999999999999967e-02
4.649999999999999967e-02
3.099999999999999978e-02
4.649999999999999967e-02
4.150000000000000216e-02
3.624999999999999750e-02
4.150000000000000216e-02
4.649999999999999967e-02
5.700000000000000205e-02
5.174999999999999739e-02
5.700000000000000205e-02
3.099999999999999978e-02
5.174999999999999739e-02
3.624999999999999750e-02
4.649999999999999967e-02
4.150000000000000216e-02
6.224999999999999978e-02
4.150000000000000216e-02
4.150000000000000216e-02
3.624999999999999750e-02
4.150000000000000216e-02
4.150000000000000216e-02
9.850000000000000422e-02
5.700000000000000205e-02
5.174999999999999739e-02
4.649999999999999967e-02
4.150000000000000216e-02
4.150000000000000216e-02
6.224999999999999978e-02
4.150000000000000216e-02
4.649999999999999967e-02
4.649999999999999967e-02
6.224999999999999978e-02
4.150000000000000216e-02
7.774999999999999967e-02
4.150000000000000216e-02
5.174999999999999739e-02
4.649999999999999967e-02
4.150000000000000216e-02
4.150000000000000216e-02
5.174999999999999739e-02
4.150000000000000216e-02
4.649999999999999967e-02
4.150000000000000216e-02
5.700000000000000205e-02
3.624999999999999750e-02
5.174999999999999739e-02
7.774999999999999967e-02
4.649999999999999967e-02
6.224999999999999978e-02
5.174999999999999739e-02
4.150000000000000216e-02
6.725000000000000422e-02
4.649999999999999967e-02
6.224999999999999978e-02
5.174999999999999739e-02
4.649999999999999967e-02
4.649999999999999967e-02
4.649999999999999967e-02
5.174999999999999739e-02
9.324999999999999956e-02
6.725000000000000422e-02
5.174999999999999739e-02
4.150000000000000216e-02
4.649999999999999967e-02
3.624999999999999750e-02
3.099999999999999978e-02
4.649999999999999967e-02
3.624999999999999750e-02
4.649999999999999967e-02
4.649999999999999967e-02
5.174999999999999739e-02
5.700000000000000205e-02
8.799999999999999489e-02
5.174999999999999739e-02
4.649999999999999967e-02
4.649999999999999967e-02
4.649999999999999967e-02
4.150000000000000216e-02
5.700000000000000205e-02
4.150000000000000216e-02
4.649999999999999967e-02
1.087499999999999994e-01
6.224999999999999978e-02
4.150000000000000216e-02
4.649999999999999967e-02
4.649999999999999967e-02
6.725000000000000422e-02
5.700000000000000205e-02
4.649999999999999967e-02
6.725000000000000422e-02
4.150000000000000216e-02
4.150000000000000216e-02
5.174999999999999739e-02
4.649999999999999967e-02
4.150000000000000216e-02
3.624999999999999750e-02
4.649999999999999967e-02
5.700000000000000205e-02
5.174999999999999739e-02
6.224999999999999978e-02
4.150000000000000216e-02
6.224999999999999978e-02
4.150000000000000216e-02
5.700000000000000205e-02
5.700000000000000205e-02
5.700000000000000205e-02
4.649999999999999967e-02
4.649999999999999967e-02
4.150000000000000216e-02
3.624999999999999750e-02
4.649999999999999967e-02
3.099999999999999978e-02
3.624999999999999750e-02
3.099999999999999978e-02
3.099999999999999978e-02
6.224999999999999978e-02
8.799999999999999489e-02
4.649999999999999967e-02
3.099999999999999978e-02
5.174999999999999739e-02
5.174999999999999739e-02
5.700000000000000205e-02
4.150000000000000216e-02
5.700000000000000205e-02
4.649999999999999967e-02
4.150000000000000216e-02
4.150000000000000216e-02
4.649999999999999967e-02
3.624999999999999750e-02
4.150000000000000216e-02
9.324999999999999956e-02
5.174999999999999739e-02
4.649999999999999967e-02
4.150000000000000216e-02
5.174999999999999739e-02
3.624999999999999750e-02
4.150000000000000216e-02
4.649999999999999967e-02
4.649999999999999967e-02
5.700000000000000205e-02
4.649999999999999967e-02
4.649999999999999967e-02
4.150000000000000216e-02
8.275000000000000411e-02
5.700000000000000205e-02
4.649999999999999967e-02
4.150000000000000216e-02
4.649999999999999967e-02
6.224999999999999978e-02
5.700000000000000205e-02
6.224999999999999978e-02
6.725000000000000422e-02
3.624999999999999750e-02
3.624999999999999750e-02
3.624999999999999750e-02
5.174999999999999739e-02
7.249999999999999500e-02
5.700000000000000205e-02
5.700000000000000205e-02
5.174999999999999739e-02
6.725000000000000422e-02
4.150000000000000216e-02
5.174999999999999739e-02
5.700000000000000205e-02
5.174999999999999739e-02
5.174999999999999739e-02
4.150000000000000216e-02
4.150000000000000216e-02
5.174999999999999739e-02
9.324999999999999956e-02
7.774999999999999967e-02
5.174999999999999739e-02
5.700000000000000205e-02
5.174999999999999739e-02
3.624999999999999750e-02
5.174999999999999739e-02
4.649999999999999967e-02
4.150000000000000216e-02
4.649999999999999967e-02
4.649999999999999967e-02
4.649999999999999967e-02
5.174999999999999739e-02
8.275000000000000411e-02
6.224999999999999978e-02
5.174999999999999739e-02
3.624999999999999750e-02
4.150000000000000216e-02
5.174999999999999739e-02
4.150000000000000216e-02
4.150000000000000216e-02
5.700000000000000205e-02
5.174999999999999739e-02
7.249999999999999500e-02
4.649999999999999967e-02
5.174999999999999739e-02
9.324999999999999956e-02
5.700000000000000205e-02
4.649999999999999967e-02
4.649999999999999967e-02
5.700000000000000205e-02
5.174999999999999739e-02
4.649999999999999967e-02
4.649999999999999967e-02
4.150000000000000216e-02
5.174999999999999739e-02
4.150000000000000216e-02
5.700000000000000205e-02
6.725000000000000422e-02
5.174999999999999739e-02
5.174999999999999739e-02
5.174999999999999739e-02
4.150000000000000216e-02
6.725000000000000422e-02
4.150000000000000216e-02
5.700000000000000205e-02
7.249999999999999500e-02
5.700000000000000205e-02
6.725000000000000422e-02
4.649999999999999967e-02
6.224999999999999978e-02
7.774999999999999967e-02
6.224999999999999978e-02
3.624999999999999750e-02
3.099999999999999978e-02
4.649999999999999967e-02
4.649999999999999967e-02
4.150000000000000216e-02
6.725000000000000422e-02
5.174999999999999739e-02
4.150000000000000216e-02
4.649999999999999967e-02
4.150000000000000216e-02
5.174999999999999739e-02
5.174999999999999739e-02
3.624999999999999750e-02
5.174999999999999739e-02
3.624999999999999750e-02
4.150000000000000216e-02
6.725000000000000422e-02
5.174999999999999739e-02
4.150000000000000216e-02
4.150000000000000216e-02
4.150000000000000216e-02
4.649999999999999967e-02
4.150000000000000216e-02
4.649999999999999967e-02
4.649999999999999967e-02
7.774999999999999967e-02
6.224999999999999978e-02
4.649999999999999967e-02
5.174999999999999739e-02
4.649999999999999967e-02
5.174999999999999739e-02
5.174999999999999739e-02
5.700000000000000205e-02
5.174999999999999739e-02
3.624999999999999750e-02
7.774999999999999967e-02
5.700000000000000205e-02
5.174999999999999739e-02
1.087499999999999994e-01
3.624999999999999750e-02
5.174999999999999739e-02
4.150000000000000216e-02
4.649999999999999967e-02
5.174999999999999739e-02
5.174999999999999739e-02
4.649999999999999967e-02
4.649999999999999967e-02
5.174999999999999739e-02
4.150000000000000216e-02
5.700000000000000205e-02
7.249999999999999500e-02
7.774999999999999967e-02
4.649999999999999967e-02
4.150000000000000216e-02
4.150000000000000216e-02
5.700000000000000205e-02
5.700000000000000205e-02
3.624999999999999750e-02
5.174999999999999739e-02
5.174999999999999739e-02
4.150000000000000216e-02
6.224999999999999978e-02
6.224999999999999978e-02
6.224999999999999978e-02
3.624999999999999750e-02
3.624999999999999750e-02
4.150000000000000216e-02
5.174999999999999739e-02
5.700000000000000205e-02
3.624999999999999750e-02
4.150000000000000216e-02
5.174999999999999739e-02
5.700000000000000205e-02
4.150000000000000216e-02
4.150000000000000216e-02
7.249999999999999500e-02
6.725000000000000422e-02
3.624999999999999750e-02
3.099999999999999978e-02
4.150000000000000216e-02
4.150000000000000216e-02
4.150000000000000216e-02
4.649999999999999967e-02
4.649999999999999967e-02
5.174999999999999739e-02
4.150000000000000216e-02
6.224999999999999978e-02
5.700000000000000205e-02
3.469999999999999751e-01
8.275000000000000411e-02
6.224999999999999978e-02
5.700000000000000205e-02
5.700000000000000205e-02
4.649999999999999967e-02
4.150000000000000216e-02
6.224999999999999978e-02
6.725000000000000422e-02
5.700000000000000205e-02
6.725000000000000422e-02
5.700000000000000205e-02
6.725000000000000422e-02
8.799999999999999489e-02
4.150000000000000216e-02
7.249999999999999500e-02
4.649999999999999967e-02
7.249999999999999500e-02
4.150000000000000216e-02
5.174999999999999739e-02
3.624999999999999750e-02
5.700000000000000205e-02
6.224999999999999978e-02
4.649999999999999967e-02
4.649999999999999967e-02
1.502499999999999947e-01
1.192499999999999949e-01
6.224999999999999978e-02
1.087499999999999994e-01
9.324999999999999956e-02
4.150000000000000216e-02
9.324999999999999956e-02
3.624999999999999750e-02
3.624999999999999750e-02
5.700000000000000205e-02
4.150000000000000216e-02
4.150000000000000216e-02
5.174999999999999739e-02
8.799999999999999489e-02
4.150000000000000216e-02
5.174999999999999739e-02
5.174999999999999739e-02
4.649999999999999967e-02
6.224999999999999978e-02
6.224999999999999978e-02
4.150000000000000216e-02
3.624999999999999750e-02
4.649999999999999967e-02
6.224999999999999978e-02
5.174999999999999739e-02
6.224999999999999978e-02
1.034999999999999948e-01
4.649999999999999967e-02
5.700000000000000205e-02
3.624999999999999750e-02
4.649999999999999967e-02
4.150000000000000216e-02
4.649999999999999967e-02
4.150000000000000216e-02
4.150000000000000216e-02
5.174999999999999739e-02
5.700000000000000205e-02
4.649999999999999967e-02
1.034999999999999948e-01
4.649999999999999967e-02
5.174999999999999739e-02
5.174999999999999739e-02
5.700000000000000205e-02
3.099999999999999978e-02
4.150000000000000216e-02
5.174999999999999739e-02
5.700000000000000205e-02
4.649999999999999967e-02
4.649999999999999967e-02
6.224999999999999978e-02
1.034999999999999948e-01
4.150000000000000216e-02
5.700000000000000205e-02
6.725000000000000422e-02
4.649999999999999967e-02
5.174999999999999739e-02
4.649999999999999967e-02
3.624999999999999750e-02
3.624999999999999750e-02
4.150000000000000216e-02
4.649999999999999967e-02
4.649999999999999967e-02
8.275000000000000411e-02
5.174999999999999739e-02
4.150000000000000216e-02
4.649999999999999967e-02
4.150000000000000216e-02
6.224999999999999978e-02
3.624999999999999750e-02
3.624999999999999750e-02
4.150000000000000216e-02
3.099999999999999978e-02
4.150000000000000216e-02
5.700000000000000205e-02
5.174999999999999739e-02
7.774999999999999967e-02
7.774999999999999967e-02
4.649999999999999967e-02
6.224999999999999978e-02
3.099999999999999978e-02
4.649999999999999967e-02
5.700000000000000205e-02
4.649999999999999967e-02
4.649999999999999967e-02
5.174999999999999739e-02
4.150000000000000216e-02
3.624999999999999750e-02
4.150000000000000216e-02
6.725000000000000422e-02
7.249999999999999500e-02
4.150000000000000216e-02
5.700000000000000205e-02
4.150000000000000216e-02
5.174999999999999739e-02
4.649999999999999967e-02
4.150000000000000216e-02
5.174999999999999739e-02
6.725000000000000422e-02
6.725000000000000422e-02
6.224999999999999978e-02
5.174999999999999739e-02
4.150000000000000216e-02
6.725000000000000422e-02
4.150000000000000216e-02
6.007500000000000062e-01
5.232499999999999929e-01
5.174999999999999739e-02
1.192499999999999949e-01
1.449999999999999900e-01
1.605000000000000038e-01
1.295000000000000040e-01
7.774999999999999967e-02
1.140000000000000041e-01
5.700000000000000205e-02
8.275000000000000411e-02
6.725000000000000422e-02
6.725000000000000422e-02
5.700000000000000205e-02
9.850000000000000422e-02
1.605000000000000038e-01
1.087499999999999994e-01
1.449999999999999900e-01
6.725000000000000422e-02
1.449999999999999900e-01
6.224999999999999978e-02
9.850000000000000422e-02
1.605000000000000038e-01
2.745000000000000218e-01
8.799999999999999489e-02
7.249999999999999500e-02
5.174999999999999739e-02
5.174999999999999739e-02
1.710000000000000131e-01
1.917500000000000038e-01
5.174999999999999739e-02
5.700000000000000205e-02
1.140000000000000041e-01
6.224999999999999978e-02
1.917500000000000038e-01
7.774999999999999967e-02
1.347500000000000087e-01
2.330000000000000127e-01
7.249999999999999500e-02
8.799999999999999489e-02
6.224999999999999978e-02
7.249999999999999500e-02
8.275000000000000411e-02
8.275000000000000411e-02
1.087499999999999994e-01
1.140000000000000041e-01
7.249999999999999500e-02
7.774999999999999967e-02
6.725000000000000422e-02
5.700000000000000205e-02
7.249999999999999500e-02
4.649999999999999967e-02
1.449999999999999900e-01
1.449999999999999900e-01
4.649999999999999967e-02
7.249999999999999500e-02
6.725000000000000422e-02
6.224999999999999978e-02
6.725000000000000422e-02
4.150000000000000216e-02
5.174999999999999739e-02
5.700000000000000205e-02
4.649999999999999967e-02
6.725000000000000422e-02
6.224999999999999978e-02
4.649999999999999967e-02
4.150000000000000216e-02
5.700000000000000205e-02
5.174999999999999739e-02
5.174999999999999739e-02
8.799999999999999489e-02
8.799999999999999489e-02
5.700000000000000205e-02
6.224999999999999978e-02
6.224999999999999978e-02
5.700000000000000205e-02
4.649999999999999967e-02
4.150000000000000216e-02
7.249999999999999500e-02
5.700000000000000205e-02
5.700000000000000205e-02
4.150000000000000216e-02
6.224999999999999978e-02
1.140000000000000041e-01
5.174999999999999739e-02
5.700000000000000205e-02
5.174999999999999739e-02
6.224999999999999978e-02
5.700000000000000205e-02
6.725000000000000422e-02
5.700000000000000205e-02
5.700000000000000205e-02
6.224999999999999978e-02
5.700000000000000205e-02
4.649999999999999967e-02
5.174999999999999739e-02
4.649999999999999967e-02
8.799999999999999489e-02
4.649999999999999967e-02
4.150000000000000216e-02
5.700000000000000205e-02
5.174999999999999739e-02
4.649999999999999967e-02
6.224999999999999978e-02
5.174999999999999739e-02
6.725000000000000422e-02
4.649999999999999967e-02
5.174999999999999739e-02
4.649999999999999967e-02
4.649999999999999967e-02
8.275000000000000411e-02
7.249999999999999500e-02
5.174999999999999739e-02
5.700000000000000205e-02
6.725000000000000422e-02
6.725000000000000422e-02
5.700000000000000205e-02
5.700000000000000205e-02
4.649999999999999967e-02
6.725000000000000422e-02
4.150000000000000216e-02
4.649999999999999967e-02
5.700000000000000205e-02
1.034999999999999948e-01
8.799999999999999489e-02
5.174999999999999739e-02
6.224999999999999978e-02
6.224999999999999978e-02
6.725000000000000422e-02
4.649999999999999967e-02
5.174999999999999739e-02
4.649999999999999967e-02
5.700000000000000205e-02
6.224999999999999978e-02
6.224999999999999978e-02
6.224999999999999978e-02
6.224999999999999978e-02
8.275000000000000411e-02
5.174999999999999739e-02
4.649999999999999967e-02
5.174999999999999739e-02
5.174999999999999739e-02
5.174999999999999739e-02
6.224999999999999978e-02
5.174999999999999739e-02
6.224999999999999978e-02
5.700000000000000205e-02
5.700000000000000205e-02
5.700000000000000205e-02
4.649999999999999967e-02
9.324999999999999956e-02
6.224999999999999978e-02
4.150000000000000216e-02
5.174999999999999739e-02
1.347500000000000087e-01
7.774999999999999967e-02
2.382499999999999896e-01
1.192499999999999949e-01
5.700000000000000205e-02
1.554999999999999993e-01
1.140000000000000041e-01
1.397500000000000131e-01
1.554999999999999993e-01
1.347500000000000087e-01
2.382499999999999896e-01
5.749999999999999556e-01
1.759999999999999898e-01
3.417499999999999982e-01
1.864999999999999991e-01
5.700000000000000205e-02
5.700000000000000205e-02
4.649999999999999967e-02
7.774999999999999967e-02
4.150000000000000216e-02
