5.304000000000000270e+00
7.416999999999999815e+00
6.133000000000000007e+00
4.453999999999999737e+00
4.785999999999999588e+00
7.293000000000000149e+00
4.661999999999999922e+00
4.474999999999999645e+00
4.847999999999999865e+00
4.206000000000000405e+00
2.983000000000000096e+00
4.889999999999999680e+00
4.371999999999999886e+00
5.344999999999999751e+00
4.661999999999999922e+00
6.028999999999999915e+00
6.195000000000000284e+00
3.625999999999999890e+00
6.525999999999999801e+00
4.330000000000000071e+00
4.330000000000000071e+00
6.381000000000000227e+00
5.137999999999999901e+00
5.551999999999999602e+00
7.479000000000000092e+00
5.676999999999999602e+00
7.314000000000000057e+00
5.924999999999999822e+00
2.942000000000000171e+00
2.983000000000000096e+00
5.905000000000000249e+00
5.490000000000000213e+00
5.676999999999999602e+00
5.407000000000000028e+00
4.807000000000000384e+00
8.576999999999999957e+00
6.878000000000000114e+00
9.343999999999999417e+00
6.214999999999999858e+00
5.573000000000000398e+00
5.655999999999999694e+00
5.427999999999999936e+00
6.608999999999999986e+00
7.022999999999999687e+00
5.615000000000000213e+00
7.934999999999999609e+00
7.956000000000000405e+00
5.511000000000000121e+00
4.599000000000000199e+00
6.506000000000000227e+00
4.206000000000000405e+00
6.836999999999999744e+00
6.133000000000000007e+00
7.209999999999999964e+00
7.706999999999999851e+00
3.895000000000000018e+00
8.992000000000000881e+00
9.426999999999999602e+00
7.065000000000000391e+00
5.097000000000000419e+00
6.608999999999999986e+00
4.969999999999999973e-01
4.267999999999999794e+00
5.221000000000000085e+00
6.112000000000000099e+00
4.413000000000000256e+00
4.764999999999999680e+00
4.599000000000000199e+00
4.040000000000000036e+00
3.439000000000000057e+00
4.993000000000000327e+00
7.376000000000000334e+00
4.557999999999999829e+00
3.521999999999999797e+00
5.137999999999999901e+00
3.666999999999999815e+00
7.314000000000000057e+00
2.963000000000000078e+00
3.978000000000000203e+00
3.770999999999999908e+00
6.070000000000000284e+00
3.128000000000000114e+00
4.371999999999999886e+00
6.360000000000000320e+00
5.905000000000000249e+00
3.811999999999999833e+00
4.474999999999999645e+00
3.584000000000000075e+00
2.838000000000000078e+00
5.801000000000000156e+00
3.833000000000000185e+00
5.615000000000000213e+00
2.775999999999999801e+00
7.189000000000000057e+00
3.004000000000000004e+00
5.386999999999999567e+00
3.729000000000000092e+00
2.112999999999999989e+00
1.366999999999999993e+00
1.471000000000000085e+00
3.935999999999999943e+00
4.163999999999999702e+00
2.858999999999999986e+00
7.977000000000000313e+00
4.496000000000000441e+00
7.727999999999999758e+00
4.931000000000000050e+00
5.054999999999999716e+00
1.594999999999999973e+00
1.471000000000000085e+00
2.818000000000000060e+00
2.092999999999999972e+00
2.983000000000000096e+00
4.993000000000000327e+00
3.584000000000000075e+00
2.217000000000000082e+00
1.864999999999999991e+00
3.459999999999999964e+00
4.517000000000000348e+00
2.072000000000000064e+00
2.609999999999999876e+00
2.319999999999999840e+00
2.444999999999999840e+00
4.144000000000000128e+00
1.409000000000000030e+00
1.264000000000000012e+00
1.471000000000000085e+00
1.221999999999999975e+00
1.760999999999999899e+00
2.092999999999999972e+00
2.589999999999999858e+00
6.840000000000000524e-01
1.304999999999999938e+00
1.616000000000000103e+00
3.314999999999999947e+00
1.574999999999999956e+00
1.967999999999999972e+00
1.637000000000000011e+00
1.885000000000000009e+00
1.014999999999999902e+00
8.910000000000000142e-01
9.320000000000000506e-01
1.098000000000000087e+00
1.905999999999999917e+00
1.719999999999999973e+00
1.947999999999999954e+00
2.444999999999999840e+00
1.844000000000000083e+00
8.289999999999999591e-01
1.885000000000000009e+00
1.243000000000000105e+00
1.221999999999999975e+00
2.858999999999999986e+00
2.693000000000000060e+00
4.163999999999999702e+00
1.677999999999999936e+00
2.652000000000000135e+00
4.309000000000000163e+00
3.564000000000000057e+00
6.840000000000000524e-01
3.604999999999999982e+00
4.868999999999999773e+00
4.599000000000000199e+00
1.221999999999999975e+00
2.069999999999999896e-01
1.181000000000000050e+00
4.392000000000000348e+00
2.797000000000000153e+00
1.326000000000000068e+00
2.280000000000000082e-01
1.239999999999999991e-01
1.056999999999999940e+00
4.620000000000000107e+00
9.592999999999999972e+00
3.128000000000000114e+00
2.362000000000000099e+00
2.341000000000000192e+00
1.822999999999999954e+00
3.419000000000000039e+00
1.181000000000000050e+00
2.133999999999999897e+00
4.288999999999999702e+00
2.609999999999999876e+00
2.609999999999999876e+00
9.320000000000000506e-01
2.258000000000000007e+00
3.004000000000000004e+00
2.029999999999999805e+00
2.444999999999999840e+00
2.237999999999999989e+00
2.983000000000000096e+00
4.889999999999999680e+00
3.666999999999999815e+00
4.847999999999999865e+00
4.578999999999999737e+00
2.154999999999999805e+00
1.657000000000000028e+00
1.326000000000000068e+00
2.299999999999999822e+00
1.927000000000000046e+00
2.652000000000000135e+00
1.905999999999999917e+00
3.169999999999999929e+00
1.699000000000000066e+00
2.690000000000000169e-01
1.660000000000000087e-01
1.885000000000000009e+00
1.326000000000000068e+00
9.529999999999999583e-01
4.349999999999999978e-01
8.699999999999999956e-01
8.489999999999999769e-01
1.181000000000000050e+00
3.109999999999999987e-01
1.221999999999999975e+00
9.939999999999999947e-01
8.289999999999999591e-01
9.120000000000000329e-01
1.056999999999999940e+00
1.118999999999999995e+00
4.969999999999999973e-01
1.864999999999999991e+00
7.670000000000000151e-01
9.320000000000000506e-01
8.910000000000000142e-01
8.910000000000000142e-01
9.529999999999999583e-01
8.910000000000000142e-01
1.660000000000000087e-01
2.690000000000000169e-01
3.109999999999999987e-01
4.349999999999999978e-01
1.859999999999999987e-01
1.660000000000000087e-01
1.660000000000000087e-01
2.280000000000000082e-01
3.310000000000000164e-01
2.899999999999999800e-01
2.489999999999999991e-01
1.859999999999999987e-01
1.859999999999999987e-01
2.280000000000000082e-01
2.069999999999999896e-01
2.280000000000000082e-01
1.859999999999999987e-01
2.069999999999999896e-01
2.069999999999999896e-01
2.690000000000000169e-01
1.660000000000000087e-01
3.940000000000000169e-01
4.139999999999999791e-01
2.280000000000000082e-01
2.489999999999999991e-01
1.449999999999999900e-01
2.690000000000000169e-01
1.859999999999999987e-01
1.449999999999999900e-01
2.069999999999999896e-01
1.859999999999999987e-01
1.660000000000000087e-01
1.660000000000000087e-01
1.859999999999999987e-01
1.660000000000000087e-01
3.519999999999999796e-01
1.859999999999999987e-01
1.859999999999999987e-01
1.859999999999999987e-01
1.449999999999999900e-01
1.660000000000000087e-01
2.069999999999999896e-01
2.069999999999999896e-01
1.660000000000000087e-01
2.899999999999999800e-01
1.449999999999999900e-01
1.660000000000000087e-01
2.280000000000000082e-01
2.899999999999999800e-01
4.560000000000000164e-01
6.630000000000000338e-01
3.108000000000000096e+00
9.675000000000000711e+00
2.092999999999999972e+00
1.677999999999999936e+00
5.590000000000000524e-01
2.899999999999999800e-01
1.304999999999999938e+00
1.284999999999999920e+00
2.690000000000000169e-01
1.239999999999999991e-01
3.729999999999999982e-01
8.289999999999999591e-01
3.273000000000000131e+00
4.184999999999999609e+00
1.221999999999999975e+00
7.670000000000000151e-01
1.491999999999999993e+00
1.449999999999999956e+00
1.014999999999999902e+00
1.014999999999999902e+00
1.699000000000000066e+00
1.532999999999999918e+00
1.927000000000000046e+00
8.699999999999999956e-01
1.201999999999999957e+00
2.072000000000000064e+00
1.387999999999999901e+00
1.076999999999999957e+00
1.284999999999999920e+00
1.574999999999999956e+00
1.346999999999999975e+00
9.739999999999999769e-01
8.910000000000000142e-01
7.459999999999999964e-01
1.409000000000000030e+00
5.180000000000000160e-01
1.159999999999999920e+00
6.840000000000000524e-01
8.489999999999999769e-01
1.056999999999999940e+00
4.969999999999999973e-01
8.699999999999999956e-01
9.939999999999999947e-01
8.289999999999999591e-01
6.009999999999999787e-01
9.120000000000000329e-01
1.014999999999999902e+00
8.699999999999999956e-01
3.940000000000000169e-01
8.699999999999999956e-01
5.799999999999999600e-01
1.201999999999999957e+00
6.840000000000000524e-01
5.799999999999999600e-01
5.799999999999999600e-01
9.320000000000000506e-01
6.219999999999999973e-01
4.349999999999999978e-01
6.219999999999999973e-01
8.699999999999999956e-01
3.940000000000000169e-01
2.899999999999999800e-01
2.280000000000000082e-01
2.690000000000000169e-01
4.769999999999999796e-01
5.590000000000000524e-01
4.560000000000000164e-01
3.519999999999999796e-01
3.729999999999999982e-01
1.056999999999999940e+00
3.729999999999999982e-01
4.349999999999999978e-01
6.009999999999999787e-01
1.239999999999999991e-01
3.940000000000000169e-01
3.109999999999999987e-01
3.310000000000000164e-01
3.729999999999999982e-01
4.139999999999999791e-01
8.489999999999999769e-01
2.899999999999999800e-01
6.420000000000000151e-01
2.280000000000000082e-01
3.729999999999999982e-01
4.969999999999999973e-01
4.349999999999999978e-01
1.660000000000000087e-01
2.489999999999999991e-01
2.690000000000000169e-01
2.069999999999999896e-01
2.899999999999999800e-01
2.069999999999999896e-01
2.280000000000000082e-01
2.069999999999999896e-01
2.899999999999999800e-01
2.280000000000000082e-01
2.690000000000000169e-01
2.690000000000000169e-01
4.349999999999999978e-01
4.139999999999999791e-01
2.489999999999999991e-01
2.489999999999999991e-01
2.899999999999999800e-01
1.660000000000000087e-01
1.239999999999999991e-01
1.859999999999999987e-01
2.899999999999999800e-01
2.069999999999999896e-01
2.069999999999999896e-01
2.489999999999999991e-01
2.280000000000000082e-01
4.560000000000000164e-01
3.109999999999999987e-01
1.660000000000000087e-01
2.280000000000000082e-01
3.310000000000000164e-01
2.690000000000000169e-01
2.899999999999999800e-01
3.940000000000000169e-01
2.489999999999999991e-01
2.280000000000000082e-01
1.859999999999999987e-01
3.310000000000000164e-01
2.899999999999999800e-01
2.489999999999999991e-01
3.310000000000000164e-01
2.690000000000000169e-01
2.069999999999999896e-01
2.069999999999999896e-01
2.489999999999999991e-01
2.899999999999999800e-01
2.280000000000000082e-01
2.069999999999999896e-01
1.660000000000000087e-01
2.899999999999999800e-01
2.899999999999999800e-01
2.899999999999999800e-01
2.899999999999999800e-01
4.139999999999999791e-01
1.859999999999999987e-01
4.349999999999999978e-01
2.069999999999999896e-01
2.069999999999999896e-01
2.069999999999999896e-01
2.280000000000000082e-01
3.310000000000000164e-01
2.489999999999999991e-01
1.859999999999999987e-01
5.180000000000000160e-01
1.859999999999999987e-01
3.940000000000000169e-01
3.109999999999999987e-01
1.660000000000000087e-01
3.109999999999999987e-01
2.690000000000000169e-01
1.449999999999999900e-01
4.349999999999999978e-01
2.690000000000000169e-01
2.069999999999999896e-01
2.280000000000000082e-01
2.489999999999999991e-01
1.660000000000000087e-01
4.969999999999999973e-01
2.280000000000000082e-01
2.280000000000000082e-01
1.660000000000000087e-01
1.449999999999999900e-01
1.660000000000000087e-01
1.660000000000000087e-01
2.069999999999999896e-01
1.239999999999999991e-01
1.859999999999999987e-01
1.660000000000000087e-01
2.280000000000000082e-01
2.280000000000000082e-01
1.859999999999999987e-01
2.280000000000000082e-01
4.969999999999999973e-01
2.280000000000000082e-01
1.660000000000000087e-01
1.660000000000000087e-01
1.449999999999999900e-01
2.069999999999999896e-01
2.280000000000000082e-01
1.660000000000000087e-01
1.660000000000000087e-01
2.280000000000000082e-01
1.449999999999999900e-01
1.660000000000000087e-01
1.859999999999999987e-01
2.280000000000000082e-01
4.969999999999999973e-01
1.039999999999999952e-01
1.660000000000000087e-01
1.449999999999999900e-01
1.859999999999999987e-01
1.449999999999999900e-01
2.069999999999999896e-01
1.449999999999999900e-01
2.069999999999999896e-01
1.239999999999999991e-01
2.280000000000000082e-01
1.239999999999999991e-01
2.069999999999999896e-01
4.349999999999999978e-01
2.280000000000000082e-01
2.069999999999999896e-01
2.280000000000000082e-01
1.859999999999999987e-01
1.660000000000000087e-01
1.660000000000000087e-01
1.239999999999999991e-01
1.660000000000000087e-01
1.859999999999999987e-01
1.660000000000000087e-01
2.280000000000000082e-01
4.349999999999999978e-01
4.560000000000000164e-01
1.449999999999999900e-01
1.859999999999999987e-01
1.239999999999999991e-01
1.660000000000000087e-01
1.660000000000000087e-01
1.660000000000000087e-01
2.069999999999999896e-01
1.660000000000000087e-01
1.660000000000000087e-01
1.449999999999999900e-01
2.069999999999999896e-01
4.349999999999999978e-01
3.940000000000000169e-01
1.660000000000000087e-01
1.660000000000000087e-01
1.039999999999999952e-01
1.859999999999999987e-01
1.660000000000000087e-01
1.859999999999999987e-01
1.449999999999999900e-01
1.660000000000000087e-01
1.239999999999999991e-01
1.859999999999999987e-01
1.859999999999999987e-01
2.489999999999999991e-01
3.940000000000000169e-01
1.449999999999999900e-01
1.449999999999999900e-01
1.239999999999999991e-01
1.239999999999999991e-01
1.859999999999999987e-01
1.039999999999999952e-01
1.660000000000000087e-01
1.239999999999999991e-01
1.449999999999999900e-01
1.660000000000000087e-01
1.660000000000000087e-01
1.660000000000000087e-01
2.690000000000000169e-01
3.729999999999999982e-01
2.069999999999999896e-01
1.660000000000000087e-01
1.859999999999999987e-01
1.449999999999999900e-01
1.239999999999999991e-01
1.239999999999999991e-01
2.069999999999999896e-01
1.449999999999999900e-01
1.859999999999999987e-01
1.859999999999999987e-01
1.239999999999999991e-01
1.660000000000000087e-01
3.109999999999999987e-01
3.109999999999999987e-01
1.449999999999999900e-01
1.239999999999999991e-01
1.039999999999999952e-01
1.660000000000000087e-01
1.660000000000000087e-01
1.239999999999999991e-01
1.859999999999999987e-01
1.449999999999999900e-01
2.069999999999999896e-01
1.660000000000000087e-01
1.660000000000000087e-01
1.859999999999999987e-01
4.769999999999999796e-01
3.109999999999999987e-01
1.660000000000000087e-01
1.660000000000000087e-01
1.660000000000000087e-01
1.449999999999999900e-01
1.449999999999999900e-01
2.280000000000000082e-01
1.239999999999999991e-01
1.239999999999999991e-01
1.449999999999999900e-01
1.859999999999999987e-01
1.660000000000000087e-01
4.969999999999999973e-01
3.109999999999999987e-01
2.069999999999999896e-01
2.489999999999999991e-01
1.859999999999999987e-01
1.859999999999999987e-01
2.280000000000000082e-01
1.859999999999999987e-01
1.859999999999999987e-01
2.899999999999999800e-01
1.660000000000000087e-01
1.859999999999999987e-01
3.729999999999999982e-01
3.109999999999999987e-01
2.069999999999999896e-01
1.449999999999999900e-01
1.660000000000000087e-01
2.280000000000000082e-01
1.449999999999999900e-01
1.859999999999999987e-01
1.449999999999999900e-01
1.660000000000000087e-01
1.859999999999999987e-01
2.069999999999999896e-01
3.519999999999999796e-01
2.280000000000000082e-01
1.859999999999999987e-01
1.239999999999999991e-01
2.069999999999999896e-01
1.239999999999999991e-01
2.069999999999999896e-01
2.069999999999999896e-01
2.489999999999999991e-01
1.859999999999999987e-01
1.859999999999999987e-01
4.349999999999999978e-01
3.310000000000000164e-01
1.859999999999999987e-01
1.449999999999999900e-01
2.069999999999999896e-01
1.660000000000000087e-01
1.449999999999999900e-01
1.660000000000000087e-01
2.280000000000000082e-01
2.489999999999999991e-01
1.660000000000000087e-01
1.449999999999999900e-01
4.139999999999999791e-01
2.069999999999999896e-01
1.859999999999999987e-01
1.859999999999999987e-01
1.859999999999999987e-01
1.859999999999999987e-01
1.859999999999999987e-01
2.690000000000000169e-01
3.729999999999999982e-01
2.899999999999999800e-01
2.069999999999999896e-01
4.769999999999999796e-01
1.660000000000000087e-01
2.899999999999999800e-01
5.180000000000000160e-01
2.069999999999999896e-01
2.690000000000000169e-01
2.280000000000000082e-01
4.560000000000000164e-01
1.864999999999999991e+00
1.264000000000000012e+00
8.489999999999999769e-01
2.069999999999999896e-01
3.109999999999999987e-01
8.289999999999999591e-01
3.109999999999999987e-01
2.489999999999999991e-01
8.289999999999999591e-01
1.098000000000000087e+00
6.420000000000000151e-01
1.512000000000000011e+00
2.818000000000000060e+00
1.221999999999999975e+00
7.039999999999999591e-01
9.120000000000000329e-01
5.390000000000000346e-01
6.420000000000000151e-01
2.899999999999999800e-01
1.927000000000000046e+00
6.630000000000000338e-01
2.899999999999999800e-01
6.219999999999999973e-01
2.899999999999999800e-01
6.420000000000000151e-01
5.180000000000000160e-01
1.859999999999999987e-01
1.859999999999999987e-01
1.660000000000000087e-01
1.239999999999999991e-01
7.249999999999999778e-01
1.859999999999999987e-01
1.660000000000000087e-01
1.859999999999999987e-01
3.519999999999999796e-01
2.899999999999999800e-01
2.069999999999999896e-01
1.449999999999999900e-01
1.239999999999999991e-01
2.489999999999999991e-01
1.660000000000000087e-01
1.449999999999999900e-01
1.449999999999999900e-01
1.449999999999999900e-01
1.449999999999999900e-01
4.139999999999999791e-01
1.660000000000000087e-01
1.859999999999999987e-01
2.690000000000000169e-01
1.859999999999999987e-01
1.660000000000000087e-01
1.660000000000000087e-01
1.859999999999999987e-01
1.859999999999999987e-01
2.280000000000000082e-01
1.859999999999999987e-01
2.280000000000000082e-01
4.769999999999999796e-01
2.280000000000000082e-01
2.280000000000000082e-01
1.859999999999999987e-01
2.069999999999999896e-01
1.859999999999999987e-01
2.069999999999999896e-01
1.449999999999999900e-01
1.859999999999999987e-01
1.449999999999999900e-01
1.859999999999999987e-01
2.069999999999999896e-01
3.519999999999999796e-01
2.899999999999999800e-01
1.449999999999999900e-01
1.449999999999999900e-01
1.660000000000000087e-01
1.449999999999999900e-01
1.660000000000000087e-01
1.859999999999999987e-01
1.660000000000000087e-01
1.239999999999999991e-01
1.239999999999999991e-01
1.239999999999999991e-01
1.660000000000000087e-01
2.690000000000000169e-01
3.519999999999999796e-01
1.039999999999999952e-01
1.859999999999999987e-01
1.449999999999999900e-01
2.069999999999999896e-01
1.449999999999999900e-01
1.859999999999999987e-01
1.239999999999999991e-01
1.239999999999999991e-01
1.239999999999999991e-01
1.449999999999999900e-01
1.039999999999999952e-01
2.899999999999999800e-01
4.139999999999999791e-01
1.039999999999999952e-01
1.449999999999999900e-01
1.449999999999999900e-01
1.239999999999999991e-01
1.239999999999999991e-01
1.239999999999999991e-01
1.239999999999999991e-01
1.239999999999999991e-01
1.449999999999999900e-01
1.449999999999999900e-01
4.769999999999999796e-01
3.109999999999999987e-01
1.449999999999999900e-01
1.660000000000000087e-01
1.449999999999999900e-01
1.239999999999999991e-01
1.449999999999999900e-01
1.660000000000000087e-01
1.449999999999999900e-01
1.660000000000000087e-01
1.449999999999999900e-01
3.109999999999999987e-01
2.899999999999999800e-01
1.449999999999999900e-01
1.239999999999999991e-01
2.069999999999999896e-01
1.449999999999999900e-01
1.449999999999999900e-01
1.239999999999999991e-01
1.039999999999999952e-01
1.660000000000000087e-01
2.069999999999999896e-01
1.449999999999999900e-01
4.560000000000000164e-01
3.310000000000000164e-01
1.660000000000000087e-01
1.660000000000000087e-01
1.239999999999999991e-01
1.859999999999999987e-01
1.449999999999999900e-01
1.660000000000000087e-01
1.449999999999999900e-01
1.239999999999999991e-01
1.449999999999999900e-01
1.449999999999999900e-01
2.280000000000000082e-01
1.449999999999999900e-01
4.560000000000000164e-01
1.859999999999999987e-01
1.449999999999999900e-01
1.039999999999999952e-01
1.239999999999999991e-01
1.859999999999999987e-01
1.449999999999999900e-01
2.069999999999999896e-01
1.660000000000000087e-01
2.280000000000000082e-01
1.039999999999999952e-01
1.660000000000000087e-01
1.859999999999999987e-01
1.239999999999999991e-01
3.310000000000000164e-01
3.109999999999999987e-01
1.039999999999999952e-01
2.069999999999999896e-01
1.449999999999999900e-01
1.660000000000000087e-01
1.859999999999999987e-01
1.449999999999999900e-01
1.660000000000000087e-01
1.660000000000000087e-01
1.449999999999999900e-01
1.859999999999999987e-01
1.449999999999999900e-01
1.660000000000000087e-01
1.239999999999999991e-01
4.139999999999999791e-01
2.069999999999999896e-01
1.449999999999999900e-01
1.449999999999999900e-01
1.859999999999999987e-01
1.449999999999999900e-01
1.239999999999999991e-01
1.449999999999999900e-01
1.239999999999999991e-01
1.660000000000000087e-01
1.859999999999999987e-01
1.239999999999999991e-01
1.449999999999999900e-01
2.690000000000000169e-01
4.560000000000000164e-01
1.449999999999999900e-01
1.660000000000000087e-01
1.239999999999999991e-01
1.239999999999999991e-01
1.039999999999999952e-01
1.859999999999999987e-01
1.039999999999999952e-01
1.660000000000000087e-01
1.660000000000000087e-01
1.239999999999999991e-01
1.859999999999999987e-01
3.109999999999999987e-01
1.660000000000000087e-01
1.660000000000000087e-01
1.660000000000000087e-01
1.449999999999999900e-01
1.449999999999999900e-01
1.859999999999999987e-01
1.039999999999999952e-01
1.660000000000000087e-01
1.660000000000000087e-01
1.239999999999999991e-01
1.239999999999999991e-01
2.280000000000000082e-01
4.769999999999999796e-01
1.239999999999999991e-01
1.449999999999999900e-01
1.660000000000000087e-01
1.449999999999999900e-01
1.859999999999999987e-01
1.449999999999999900e-01
1.859999999999999987e-01
1.859999999999999987e-01
1.859999999999999987e-01
1.859999999999999987e-01
2.069999999999999896e-01
2.069999999999999896e-01
1.660000000000000087e-01
4.560000000000000164e-01
2.899999999999999800e-01
1.239999999999999991e-01
1.660000000000000087e-01
1.660000000000000087e-01
1.859999999999999987e-01
1.239999999999999991e-01
1.660000000000000087e-01
1.239999999999999991e-01
1.039999999999999952e-01
1.660000000000000087e-01
1.449999999999999900e-01
1.660000000000000087e-01
1.660000000000000087e-01
1.239999999999999991e-01
2.690000000000000169e-01
4.560000000000000164e-01
2.280000000000000082e-01
1.039999999999999952e-01
1.449999999999999900e-01
1.660000000000000087e-01
1.449999999999999900e-01
1.859999999999999987e-01
1.039999999999999952e-01
1.449999999999999900e-01
1.449999999999999900e-01
1.449999999999999900e-01
1.039999999999999952e-01
1.449999999999999900e-01
1.660000000000000087e-01
2.280000000000000082e-01
3.940000000000000169e-01
4.139999999999999791e-01
1.859999999999999987e-01
1.859999999999999987e-01
1.660000000000000087e-01
1.239999999999999991e-01
1.239999999999999991e-01
1.239999999999999991e-01
1.239999999999999991e-01
1.449999999999999900e-01
1.660000000000000087e-01
1.859999999999999987e-01
1.859999999999999987e-01
1.239999999999999991e-01
1.660000000000000087e-01
2.280000000000000082e-01
3.729999999999999982e-01
1.039999999999999952e-01
1.449999999999999900e-01
1.449999999999999900e-01
1.239999999999999991e-01
1.449999999999999900e-01
1.660000000000000087e-01
1.449999999999999900e-01
1.239999999999999991e-01
1.859999999999999987e-01
1.449999999999999900e-01
1.039999999999999952e-01
1.660000000000000087e-01
1.449999999999999900e-01
3.519999999999999796e-01
2.690000000000000169e-01
1.859999999999999987e-01
1.660000000000000087e-01
1.239999999999999991e-01
1.859999999999999987e-01
1.449999999999999900e-01
1.449999999999999900e-01
1.449999999999999900e-01
1.660000000000000087e-01
1.859999999999999987e-01
2.069999999999999896e-01
1.660000000000000087e-01
2.690000000000000169e-01
2.489999999999999991e-01
1.449999999999999900e-01
1.039999999999999952e-01
1.660000000000000087e-01
1.449999999999999900e-01
1.449999999999999900e-01
2.069999999999999896e-01
1.449999999999999900e-01
1.859999999999999987e-01
1.660000000000000087e-01
1.660000000000000087e-01
1.660000000000000087e-01
1.660000000000000087e-01
1.660000000000000087e-01
1.660000000000000087e-01
1.449999999999999900e-01
1.660000000000000087e-01
1.039999999999999952e-01
1.449999999999999900e-01
1.239999999999999991e-01
1.449999999999999900e-01
1.859999999999999987e-01
1.660000000000000087e-01
1.660000000000000087e-01
1.449999999999999900e-01
2.690000000000000169e-01
3.519999999999999796e-01
2.489999999999999991e-01
1.859999999999999987e-01
2.069999999999999896e-01
1.449999999999999900e-01
1.239999999999999991e-01
1.449999999999999900e-01
1.859999999999999987e-01
1.660000000000000087e-01
1.239999999999999991e-01
1.660000000000000087e-01
1.660000000000000087e-01
1.449999999999999900e-01
1.859999999999999987e-01
1.859999999999999987e-01
4.969999999999999973e-01
1.039999999999999952e-01
2.069999999999999896e-01
1.660000000000000087e-01
1.449999999999999900e-01
1.859999999999999987e-01
1.449999999999999900e-01
1.449999999999999900e-01
1.859999999999999987e-01
1.239999999999999991e-01
1.449999999999999900e-01
1.449999999999999900e-01
1.449999999999999900e-01
1.449999999999999900e-01
1.039999999999999952e-01
3.310000000000000164e-01
3.729999999999999982e-01
1.449999999999999900e-01
1.239999999999999991e-01
2.280000000000000082e-01
1.449999999999999900e-01
1.239999999999999991e-01
1.039999999999999952e-01
1.660000000000000087e-01
1.239999999999999991e-01
1.859999999999999987e-01
1.449999999999999900e-01
1.859999999999999987e-01
1.239999999999999991e-01
1.859999999999999987e-01
1.039999999999999952e-01
4.139999999999999791e-01
3.310000000000000164e-01
2.069999999999999896e-01
1.660000000000000087e-01
1.660000000000000087e-01
1.449999999999999900e-01
1.039999999999999952e-01
1.239999999999999991e-01
1.449999999999999900e-01
1.660000000000000087e-01
1.449999999999999900e-01
1.239999999999999991e-01
1.449999999999999900e-01
2.069999999999999896e-01
1.449999999999999900e-01
2.489999999999999991e-01
3.729999999999999982e-01
1.239999999999999991e-01
2.069999999999999896e-01
1.660000000000000087e-01
2.069999999999999896e-01
1.859999999999999987e-01
1.239999999999999991e-01
1.239999999999999991e-01
1.449999999999999900e-01
1.660000000000000087e-01
1.859999999999999987e-01
1.239999999999999991e-01
1.660000000000000087e-01
1.449999999999999900e-01
1.859999999999999987e-01
3.940000000000000169e-01
1.859999999999999987e-01
2.280000000000000082e-01
1.239999999999999991e-01
1.660000000000000087e-01
1.449999999999999900e-01
1.859999999999999987e-01
1.449999999999999900e-01
1.239999999999999991e-01
1.039999999999999952e-01
1.449999999999999900e-01
1.859999999999999987e-01
2.069999999999999896e-01
3.519999999999999796e-01
2.489999999999999991e-01
1.239999999999999991e-01
1.449999999999999900e-01
1.660000000000000087e-01
1.449999999999999900e-01
1.449999999999999900e-01
1.039999999999999952e-01
1.660000000000000087e-01
1.449999999999999900e-01
1.859999999999999987e-01
1.449999999999999900e-01
1.859999999999999987e-01
3.519999999999999796e-01
1.449999999999999900e-01
1.660000000000000087e-01
1.239999999999999991e-01
1.449999999999999900e-01
1.449999999999999900e-01
1.449999999999999900e-01
1.449999999999999900e-01
1.239999999999999991e-01
1.859999999999999987e-01
1.239999999999999991e-01
1.449999999999999900e-01
2.280000000000000082e-01
3.729999999999999982e-01
1.660000000000000087e-01
1.449999999999999900e-01
1.039999999999999952e-01
1.859999999999999987e-01
1.660000000000000087e-01
1.039999999999999952e-01
1.660000000000000087e-01
1.239999999999999991e-01
1.859999999999999987e-01
1.449999999999999900e-01
1.239999999999999991e-01
1.660000000000000087e-01
2.899999999999999800e-01
3.729999999999999982e-01
1.859999999999999987e-01
1.239999999999999991e-01
1.859999999999999987e-01
1.239999999999999991e-01
1.449999999999999900e-01
1.660000000000000087e-01
1.660000000000000087e-01
1.239999999999999991e-01
1.449999999999999900e-01
1.660000000000000087e-01
1.859999999999999987e-01
1.239999999999999991e-01
1.039999999999999952e-01
3.519999999999999796e-01
2.899999999999999800e-01
1.449999999999999900e-01
2.069999999999999896e-01
1.239999999999999991e-01
1.449999999999999900e-01
1.239999999999999991e-01
1.239999999999999991e-01
1.239999999999999991e-01
1.449999999999999900e-01
1.449999999999999900e-01
1.239999999999999991e-01
1.660000000000000087e-01
1.239999999999999991e-01
1.859999999999999987e-01
2.069999999999999896e-01
4.139999999999999791e-01
1.039999999999999952e-01
1.660000000000000087e-01
1.449999999999999900e-01
1.859999999999999987e-01
2.489999999999999991e-01
1.239999999999999991e-01
2.069999999999999896e-01
1.859999999999999987e-01
2.069999999999999896e-01
1.660000000000000087e-01
1.039999999999999952e-01
1.239999999999999991e-01
1.449999999999999900e-01
2.489999999999999991e-01
3.519999999999999796e-01
1.239999999999999991e-01
1.239999999999999991e-01
1.039999999999999952e-01
1.859999999999999987e-01
1.859999999999999987e-01
1.239999999999999991e-01
1.660000000000000087e-01
1.660000000000000087e-01
1.449999999999999900e-01
1.449999999999999900e-01
1.039999999999999952e-01
1.660000000000000087e-01
1.449999999999999900e-01
3.940000000000000169e-01
2.069999999999999896e-01
1.449999999999999900e-01
1.660000000000000087e-01
1.660000000000000087e-01
1.859999999999999987e-01
1.660000000000000087e-01
1.660000000000000087e-01
1.449999999999999900e-01
1.660000000000000087e-01
1.449999999999999900e-01
1.660000000000000087e-01
2.690000000000000169e-01
2.690000000000000169e-01
1.449999999999999900e-01
1.449999999999999900e-01
1.239999999999999991e-01
1.660000000000000087e-01
1.660000000000000087e-01
1.859999999999999987e-01
2.069999999999999896e-01
1.859999999999999987e-01
1.660000000000000087e-01
2.069999999999999896e-01
2.899999999999999800e-01
3.519999999999999796e-01
1.449999999999999900e-01
1.449999999999999900e-01
1.449999999999999900e-01
1.660000000000000087e-01
1.239999999999999991e-01
1.660000000000000087e-01
1.660000000000000087e-01
1.239999999999999991e-01
1.859999999999999987e-01
1.859999999999999987e-01
1.239999999999999991e-01
1.660000000000000087e-01
5.590000000000000524e-01
2.489999999999999991e-01
1.449999999999999900e-01
1.449999999999999900e-01
1.449999999999999900e-01
1.239999999999999991e-01
1.239999999999999991e-01
1.239999999999999991e-01
1.449999999999999900e-01
1.449999999999999900e-01
1.660000000000000087e-01
1.660000000000000087e-01
1.859999999999999987e-01
1.449999999999999900e-01
1.859999999999999987e-01
4.560000000000000164e-01
1.449999999999999900e-01
1.660000000000000087e-01
1.859999999999999987e-01
1.660000000000000087e-01
1.239999999999999991e-01
1.859999999999999987e-01
1.449999999999999900e-01
1.660000000000000087e-01
1.449999999999999900e-01
1.660000000000000087e-01
1.449999999999999900e-01
1.449999999999999900e-01
1.859999999999999987e-01
2.069999999999999896e-01
4.969999999999999973e-01
1.660000000000000087e-01
1.039999999999999952e-01
1.449999999999999900e-01
1.239999999999999991e-01
1.660000000000000087e-01
1.449999999999999900e-01
2.280000000000000082e-01
2.069999999999999896e-01
1.660000000000000087e-01
1.449999999999999900e-01
1.449999999999999900e-01
1.449999999999999900e-01
1.449999999999999900e-01
1.859999999999999987e-01
3.519999999999999796e-01
3.729999999999999982e-01
1.449999999999999900e-01
2.069999999999999896e-01
1.859999999999999987e-01
1.660000000000000087e-01
1.660000000000000087e-01
1.660000000000000087e-01
1.859999999999999987e-01
1.449999999999999900e-01
1.660000000000000087e-01
1.660000000000000087e-01
2.069999999999999896e-01
1.660000000000000087e-01
1.660000000000000087e-01
4.769999999999999796e-01
2.069999999999999896e-01
1.449999999999999900e-01
1.449999999999999900e-01
1.660000000000000087e-01
1.449999999999999900e-01
1.449999999999999900e-01
1.660000000000000087e-01
1.449999999999999900e-01
1.859999999999999987e-01
1.239999999999999991e-01
1.660000000000000087e-01
2.280000000000000082e-01
2.690000000000000169e-01
2.069999999999999896e-01
1.039999999999999952e-01
1.449999999999999900e-01
1.449999999999999900e-01
1.239999999999999991e-01
1.660000000000000087e-01
1.239999999999999991e-01
1.239999999999999991e-01
1.039999999999999952e-01
1.449999999999999900e-01
2.899999999999999800e-01
3.109999999999999987e-01
1.039999999999999952e-01
1.660000000000000087e-01
1.859999999999999987e-01
1.239999999999999991e-01
1.239999999999999991e-01
1.449999999999999900e-01
1.660000000000000087e-01
1.660000000000000087e-01
1.449999999999999900e-01
1.449999999999999900e-01
1.239999999999999991e-01
4.769999999999999796e-01
1.859999999999999987e-01
1.239999999999999991e-01
1.239999999999999991e-01
1.449999999999999900e-01
1.449999999999999900e-01
1.449999999999999900e-01
1.660000000000000087e-01
2.069999999999999896e-01
1.859999999999999987e-01
1.449999999999999900e-01
1.660000000000000087e-01
1.660000000000000087e-01
2.280000000000000082e-01
5.390000000000000346e-01
1.660000000000000087e-01
1.039999999999999952e-01
1.859999999999999987e-01
1.239999999999999991e-01
1.859999999999999987e-01
1.660000000000000087e-01
1.660000000000000087e-01
1.449999999999999900e-01
1.859999999999999987e-01
1.449999999999999900e-01
1.859999999999999987e-01
1.660000000000000087e-01
1.039999999999999952e-01
1.449999999999999900e-01
3.109999999999999987e-01
3.310000000000000164e-01
1.660000000000000087e-01
1.239999999999999991e-01
1.859999999999999987e-01
1.859999999999999987e-01
1.239999999999999991e-01
1.660000000000000087e-01
1.660000000000000087e-01
1.859999999999999987e-01
1.449999999999999900e-01
1.239999999999999991e-01
1.449999999999999900e-01
1.039999999999999952e-01
1.859999999999999987e-01
3.519999999999999796e-01
4.139999999999999791e-01
1.239999999999999991e-01
1.449999999999999900e-01
1.449999999999999900e-01
1.239999999999999991e-01
1.660000000000000087e-01
1.859999999999999987e-01
1.239999999999999991e-01
1.239999999999999991e-01
1.449999999999999900e-01
1.239999999999999991e-01
1.660000000000000087e-01
1.859999999999999987e-01
1.449999999999999900e-01
2.280000000000000082e-01
3.940000000000000169e-01
1.239999999999999991e-01
1.239999999999999991e-01
1.449999999999999900e-01
1.660000000000000087e-01
1.239999999999999991e-01
1.449999999999999900e-01
1.239999999999999991e-01
1.039999999999999952e-01
1.660000000000000087e-01
1.239999999999999991e-01
1.449999999999999900e-01
1.660000000000000087e-01
3.109999999999999987e-01
2.069999999999999896e-01
1.660000000000000087e-01
1.660000000000000087e-01
1.239999999999999991e-01
1.859999999999999987e-01
1.449999999999999900e-01
1.449999999999999900e-01
1.239999999999999991e-01
1.859999999999999987e-01
1.859999999999999987e-01
1.449999999999999900e-01
2.069999999999999896e-01
4.139999999999999791e-01
1.660000000000000087e-01
1.660000000000000087e-01
1.239999999999999991e-01
1.660000000000000087e-01
1.449999999999999900e-01
1.449999999999999900e-01
1.859999999999999987e-01
1.449999999999999900e-01
2.069999999999999896e-01
1.660000000000000087e-01
1.859999999999999987e-01
1.239999999999999991e-01
4.139999999999999791e-01
2.069999999999999896e-01
1.449999999999999900e-01
1.660000000000000087e-01
1.239999999999999991e-01
1.239999999999999991e-01
1.660000000000000087e-01
1.660000000000000087e-01
1.449999999999999900e-01
1.660000000000000087e-01
1.039999999999999952e-01
2.069999999999999896e-01
1.239999999999999991e-01
1.660000000000000087e-01
1.239999999999999991e-01
4.969999999999999973e-01
2.069999999999999896e-01
1.449999999999999900e-01
1.660000000000000087e-01
1.660000000000000087e-01
1.660000000000000087e-01
1.239999999999999991e-01
1.239999999999999991e-01
1.239999999999999991e-01
1.449999999999999900e-01
1.859999999999999987e-01
2.280000000000000082e-01
2.069999999999999896e-01
2.069999999999999896e-01
1.239999999999999991e-01
1.660000000000000087e-01
4.139999999999999791e-01
1.859999999999999987e-01
1.660000000000000087e-01
2.069999999999999896e-01
2.280000000000000082e-01
1.239999999999999991e-01
1.660000000000000087e-01
1.039999999999999952e-01
1.449999999999999900e-01
2.069999999999999896e-01
1.660000000000000087e-01
1.239999999999999991e-01
1.239999999999999991e-01
1.239999999999999991e-01
1.239999999999999991e-01
2.690000000000000169e-01
4.769999999999999796e-01
1.239999999999999991e-01
1.449999999999999900e-01
1.660000000000000087e-01
1.239999999999999991e-01
8.300000000000000433e-02
1.449999999999999900e-01
1.449999999999999900e-01
1.660000000000000087e-01
1.239999999999999991e-01
8.300000000000000433e-02
1.239999999999999991e-01
1.239999999999999991e-01
1.039999999999999952e-01
1.660000000000000087e-01
4.139999999999999791e-01
2.069999999999999896e-01
1.660000000000000087e-01
1.239999999999999991e-01
1.039999999999999952e-01
1.449999999999999900e-01
1.449999999999999900e-01
1.449999999999999900e-01
1.449999999999999900e-01
1.859999999999999987e-01
1.449999999999999900e-01
1.449999999999999900e-01
1.660000000000000087e-01
1.660000000000000087e-01
4.139999999999999791e-01
1.449999999999999900e-01
1.859999999999999987e-01
1.449999999999999900e-01
1.449999999999999900e-01
2.069999999999999896e-01
1.239999999999999991e-01
1.449999999999999900e-01
1.039999999999999952e-01
1.449999999999999900e-01
1.239999999999999991e-01
2.069999999999999896e-01
3.940000000000000169e-01
1.660000000000000087e-01
1.449999999999999900e-01
1.660000000000000087e-01
1.239999999999999991e-01
1.449999999999999900e-01
1.660000000000000087e-01
1.449999999999999900e-01
1.859999999999999987e-01
1.660000000000000087e-01
1.449999999999999900e-01
1.449999999999999900e-01
4.139999999999999791e-01
2.489999999999999991e-01
1.449999999999999900e-01
2.069999999999999896e-01
2.069999999999999896e-01
1.239999999999999991e-01
1.660000000000000087e-01
1.660000000000000087e-01
1.039999999999999952e-01
1.449999999999999900e-01
1.239999999999999991e-01
1.239999999999999991e-01
1.239999999999999991e-01
1.449999999999999900e-01
1.660000000000000087e-01
4.560000000000000164e-01
1.239999999999999991e-01
1.859999999999999987e-01
1.449999999999999900e-01
1.859999999999999987e-01
1.660000000000000087e-01
1.449999999999999900e-01
1.660000000000000087e-01
1.239999999999999991e-01
1.449999999999999900e-01
1.449999999999999900e-01
1.449999999999999900e-01
1.239999999999999991e-01
1.039999999999999952e-01
2.069999999999999896e-01
4.349999999999999978e-01
3.310000000000000164e-01
1.660000000000000087e-01
1.859999999999999987e-01
1.239999999999999991e-01
1.239999999999999991e-01
1.660000000000000087e-01
1.859999999999999987e-01
1.239999999999999991e-01
1.239999999999999991e-01
1.449999999999999900e-01
1.859999999999999987e-01
1.239999999999999991e-01
1.449999999999999900e-01
1.239999999999999991e-01
1.660000000000000087e-01
4.969999999999999973e-01
1.859999999999999987e-01
1.239999999999999991e-01
1.449999999999999900e-01
1.239999999999999991e-01
1.449999999999999900e-01
1.239999999999999991e-01
1.660000000000000087e-01
1.660000000000000087e-01
1.239999999999999991e-01
1.239999999999999991e-01
1.239999999999999991e-01
1.449999999999999900e-01
1.449999999999999900e-01
1.039999999999999952e-01
1.239999999999999991e-01
4.769999999999999796e-01
1.239999999999999991e-01
1.239999999999999991e-01
2.069999999999999896e-01
1.449999999999999900e-01
1.239999999999999991e-01
1.449999999999999900e-01
1.239999999999999991e-01
8.300000000000000433e-02
1.239999999999999991e-01
1.239999999999999991e-01
1.449999999999999900e-01
2.489999999999999991e-01
1.449999999999999900e-01
3.109999999999999987e-01
2.899999999999999800e-01
1.859999999999999987e-01
1.859999999999999987e-01
1.449999999999999900e-01
1.449999999999999900e-01
1.039999999999999952e-01
1.239999999999999991e-01
1.449999999999999900e-01
1.239999999999999991e-01
1.239999999999999991e-01
1.660000000000000087e-01
1.660000000000000087e-01
2.280000000000000082e-01
2.069999999999999896e-01
1.239999999999999991e-01
1.239999999999999991e-01
1.239999999999999991e-01
1.239999999999999991e-01
1.660000000000000087e-01
2.489999999999999991e-01
1.859999999999999987e-01
1.859999999999999987e-01
1.449999999999999900e-01
1.859999999999999987e-01
1.449999999999999900e-01
3.940000000000000169e-01
1.449999999999999900e-01
2.069999999999999896e-01
1.239999999999999991e-01
1.449999999999999900e-01
1.449999999999999900e-01
1.449999999999999900e-01
1.859999999999999987e-01
1.859999999999999987e-01
1.239999999999999991e-01
1.239999999999999991e-01
1.660000000000000087e-01
2.069999999999999896e-01
4.139999999999999791e-01
1.239999999999999991e-01
1.239999999999999991e-01
1.660000000000000087e-01
1.859999999999999987e-01
1.239999999999999991e-01
1.660000000000000087e-01
1.239999999999999991e-01
2.280000000000000082e-01
1.239999999999999991e-01
1.660000000000000087e-01
1.039999999999999952e-01
1.449999999999999900e-01
1.859999999999999987e-01
1.660000000000000087e-01
1.449999999999999900e-01
4.560000000000000164e-01
2.280000000000000082e-01
1.449999999999999900e-01
1.449999999999999900e-01
1.239999999999999991e-01
2.069999999999999896e-01
1.239999999999999991e-01
1.660000000000000087e-01
1.239999999999999991e-01
1.449999999999999900e-01
1.859999999999999987e-01
2.069999999999999896e-01
1.239999999999999991e-01
1.039999999999999952e-01
1.859999999999999987e-01
1.449999999999999900e-01
3.940000000000000169e-01
3.310000000000000164e-01
1.449999999999999900e-01
1.660000000000000087e-01
1.859999999999999987e-01
1.660000000000000087e-01
1.239999999999999991e-01
1.859999999999999987e-01
1.449999999999999900e-01
1.660000000000000087e-01
8.300000000000000433e-02
1.660000000000000087e-01
1.239999999999999991e-01
1.039999999999999952e-01
1.239999999999999991e-01
1.449999999999999900e-01
2.280000000000000082e-01
3.940000000000000169e-01
1.449999999999999900e-01
1.239999999999999991e-01
1.239999999999999991e-01
1.239999999999999991e-01
1.660000000000000087e-01
1.859999999999999987e-01
1.239999999999999991e-01
1.449999999999999900e-01
1.239999999999999991e-01
1.039999999999999952e-01
1.449999999999999900e-01
1.449999999999999900e-01
1.449999999999999900e-01
1.660000000000000087e-01
3.519999999999999796e-01
4.139999999999999791e-01
1.239999999999999991e-01
1.239999999999999991e-01
1.660000000000000087e-01
2.069999999999999896e-01
1.859999999999999987e-01
1.660000000000000087e-01
1.449999999999999900e-01
1.859999999999999987e-01
2.069999999999999896e-01
1.449999999999999900e-01
2.069999999999999896e-01
1.859999999999999987e-01
1.239999999999999991e-01
2.280000000000000082e-01
2.280000000000000082e-01
1.660000000000000087e-01
1.039999999999999952e-01
1.449999999999999900e-01
1.449999999999999900e-01
1.449999999999999900e-01
1.239999999999999991e-01
1.239999999999999991e-01
1.449999999999999900e-01
1.660000000000000087e-01
1.660000000000000087e-01
1.239999999999999991e-01
1.859999999999999987e-01
1.859999999999999987e-01
1.660000000000000087e-01
1.660000000000000087e-01
1.239999999999999991e-01
1.239999999999999991e-01
1.660000000000000087e-01
1.039999999999999952e-01
1.449999999999999900e-01
1.239999999999999991e-01
1.859999999999999987e-01
1.039999999999999952e-01
2.069999999999999896e-01
4.349999999999999978e-01
1.660000000000000087e-01
1.449999999999999900e-01
1.239999999999999991e-01
1.039999999999999952e-01
1.449999999999999900e-01
1.449999999999999900e-01
1.660000000000000087e-01
1.449999999999999900e-01
1.449999999999999900e-01
1.660000000000000087e-01
1.039999999999999952e-01
2.690000000000000169e-01
3.310000000000000164e-01
1.660000000000000087e-01
1.660000000000000087e-01
1.859999999999999987e-01
1.859999999999999987e-01
1.449999999999999900e-01
1.449999999999999900e-01
1.449999999999999900e-01
1.039999999999999952e-01
1.859999999999999987e-01
1.449999999999999900e-01
1.239999999999999991e-01
1.859999999999999987e-01
1.239999999999999991e-01
1.449999999999999900e-01
4.969999999999999973e-01
2.489999999999999991e-01
1.239999999999999991e-01
1.239999999999999991e-01
1.239999999999999991e-01
1.660000000000000087e-01
1.660000000000000087e-01
1.449999999999999900e-01
1.239999999999999991e-01
1.859999999999999987e-01
1.449999999999999900e-01
1.660000000000000087e-01
1.859999999999999987e-01
1.449999999999999900e-01
1.660000000000000087e-01
1.239999999999999991e-01
3.109999999999999987e-01
4.139999999999999791e-01
2.489999999999999991e-01
1.449999999999999900e-01
1.039999999999999952e-01
1.239999999999999991e-01
1.239999999999999991e-01
1.239999999999999991e-01
1.239999999999999991e-01
1.660000000000000087e-01
1.239999999999999991e-01
1.239999999999999991e-01
1.239999999999999991e-01
1.859999999999999987e-01
2.690000000000000169e-01
1.660000000000000087e-01
1.449999999999999900e-01
4.349999999999999978e-01
1.859999999999999987e-01
1.449999999999999900e-01
1.660000000000000087e-01
2.069999999999999896e-01
1.859999999999999987e-01
1.660000000000000087e-01
1.660000000000000087e-01
1.660000000000000087e-01
1.449999999999999900e-01
1.660000000000000087e-01
2.069999999999999896e-01
1.449999999999999900e-01
2.069999999999999896e-01
1.449999999999999900e-01
1.660000000000000087e-01
4.969999999999999973e-01
1.039999999999999952e-01
1.039999999999999952e-01
1.239999999999999991e-01
1.449999999999999900e-01
1.039999999999999952e-01
1.660000000000000087e-01
1.449999999999999900e-01
1.660000000000000087e-01
1.239999999999999991e-01
1.239999999999999991e-01
1.660000000000000087e-01
1.859999999999999987e-01
2.280000000000000082e-01
1.239999999999999991e-01
4.349999999999999978e-01
1.660000000000000087e-01
1.039999999999999952e-01
1.239999999999999991e-01
1.239999999999999991e-01
1.239999999999999991e-01
1.449999999999999900e-01
1.660000000000000087e-01
1.239999999999999991e-01
1.859999999999999987e-01
1.859999999999999987e-01
1.239999999999999991e-01
1.859999999999999987e-01
1.660000000000000087e-01
2.899999999999999800e-01
1.239999999999999991e-01
1.660000000000000087e-01
1.239999999999999991e-01
1.449999999999999900e-01
2.069999999999999896e-01
1.239999999999999991e-01
1.039999999999999952e-01
1.859999999999999987e-01
1.660000000000000087e-01
1.239999999999999991e-01
2.069999999999999896e-01
3.519999999999999796e-01
1.660000000000000087e-01
1.859999999999999987e-01
1.449999999999999900e-01
1.660000000000000087e-01
1.859999999999999987e-01
1.660000000000000087e-01
1.449999999999999900e-01
1.660000000000000087e-01
2.069999999999999896e-01
1.859999999999999987e-01
1.449999999999999900e-01
2.069999999999999896e-01
2.489999999999999991e-01
1.239999999999999991e-01
1.859999999999999987e-01
1.039999999999999952e-01
2.069999999999999896e-01
1.859999999999999987e-01
1.449999999999999900e-01
1.239999999999999991e-01
1.660000000000000087e-01
1.660000000000000087e-01
1.039999999999999952e-01
1.239999999999999991e-01
1.449999999999999900e-01
1.859999999999999987e-01
4.560000000000000164e-01
2.069999999999999896e-01
1.660000000000000087e-01
1.239999999999999991e-01
1.859999999999999987e-01
1.239999999999999991e-01
1.660000000000000087e-01
1.660000000000000087e-01
1.039999999999999952e-01
1.449999999999999900e-01
1.039999999999999952e-01
2.069999999999999896e-01
1.239999999999999991e-01
2.069999999999999896e-01
1.660000000000000087e-01
1.859999999999999987e-01
4.769999999999999796e-01
2.690000000000000169e-01
1.660000000000000087e-01
1.449999999999999900e-01
1.039999999999999952e-01
1.449999999999999900e-01
1.239999999999999991e-01
1.449999999999999900e-01
1.449999999999999900e-01
1.039999999999999952e-01
1.239999999999999991e-01
1.449999999999999900e-01
1.239999999999999991e-01
1.239999999999999991e-01
1.660000000000000087e-01
1.239999999999999991e-01
2.489999999999999991e-01
4.769999999999999796e-01
1.859999999999999987e-01
8.300000000000000433e-02
1.039999999999999952e-01
1.859999999999999987e-01
1.859999999999999987e-01
1.660000000000000087e-01
1.859999999999999987e-01
2.069999999999999896e-01
1.449999999999999900e-01
1.239999999999999991e-01
1.239999999999999991e-01
1.660000000000000087e-01
1.449999999999999900e-01
1.449999999999999900e-01
1.859999999999999987e-01
3.519999999999999796e-01
2.690000000000000169e-01
1.859999999999999987e-01
1.859999999999999987e-01
1.449999999999999900e-01
1.239999999999999991e-01
1.239999999999999991e-01
1.239999999999999991e-01
1.239999999999999991e-01
1.449999999999999900e-01
1.449999999999999900e-01
1.449999999999999900e-01
1.859999999999999987e-01
2.280000000000000082e-01
1.239999999999999991e-01
2.280000000000000082e-01
3.940000000000000169e-01
1.239999999999999991e-01
1.660000000000000087e-01
1.660000000000000087e-01
1.239999999999999991e-01
1.239999999999999991e-01
1.660000000000000087e-01
2.280000000000000082e-01
1.239999999999999991e-01
1.039999999999999952e-01
1.239999999999999991e-01
1.449999999999999900e-01
1.449999999999999900e-01
1.660000000000000087e-01
3.729999999999999982e-01
2.069999999999999896e-01
1.039999999999999952e-01
1.239999999999999991e-01
1.239999999999999991e-01
1.449999999999999900e-01
1.449999999999999900e-01
1.239999999999999991e-01
1.660000000000000087e-01
1.239999999999999991e-01
1.660000000000000087e-01
1.859999999999999987e-01
1.239999999999999991e-01
1.449999999999999900e-01
3.310000000000000164e-01
2.280000000000000082e-01
1.239999999999999991e-01
1.660000000000000087e-01
1.660000000000000087e-01
1.449999999999999900e-01
1.449999999999999900e-01
1.449999999999999900e-01
1.449999999999999900e-01
1.449999999999999900e-01
1.449999999999999900e-01
1.039999999999999952e-01
1.859999999999999987e-01
1.239999999999999991e-01
4.139999999999999791e-01
2.489999999999999991e-01
1.859999999999999987e-01
1.449999999999999900e-01
1.239999999999999991e-01
1.039999999999999952e-01
1.660000000000000087e-01
1.449999999999999900e-01
1.859999999999999987e-01
1.039999999999999952e-01
2.069999999999999896e-01
1.449999999999999900e-01
1.859999999999999987e-01
1.239999999999999991e-01
1.239999999999999991e-01
3.109999999999999987e-01
3.729999999999999982e-01
1.449999999999999900e-01
1.449999999999999900e-01
1.239999999999999991e-01
1.449999999999999900e-01
1.660000000000000087e-01
1.859999999999999987e-01
1.660000000000000087e-01
1.239999999999999991e-01
1.859999999999999987e-01
1.449999999999999900e-01
1.449999999999999900e-01
1.859999999999999987e-01
1.660000000000000087e-01
1.449999999999999900e-01
3.940000000000000169e-01
3.519999999999999796e-01
1.449999999999999900e-01
2.069999999999999896e-01
1.449999999999999900e-01
1.239999999999999991e-01
1.239999999999999991e-01
1.660000000000000087e-01
1.239999999999999991e-01
1.239999999999999991e-01
2.069999999999999896e-01
2.069999999999999896e-01
1.449999999999999900e-01
1.660000000000000087e-01
1.039999999999999952e-01
1.239999999999999991e-01
4.969999999999999973e-01
1.859999999999999987e-01
1.660000000000000087e-01
2.280000000000000082e-01
1.449999999999999900e-01
1.039999999999999952e-01
1.239999999999999991e-01
1.239999999999999991e-01
2.069999999999999896e-01
1.449999999999999900e-01
1.449999999999999900e-01
1.449999999999999900e-01
1.859999999999999987e-01
1.449999999999999900e-01
1.449999999999999900e-01
3.940000000000000169e-01
2.069999999999999896e-01
1.449999999999999900e-01
1.660000000000000087e-01
1.239999999999999991e-01
1.660000000000000087e-01
1.239999999999999991e-01
1.239999999999999991e-01
1.449999999999999900e-01
1.039999999999999952e-01
1.660000000000000087e-01
1.859999999999999987e-01
1.660000000000000087e-01
1.660000000000000087e-01
4.139999999999999791e-01
1.859999999999999987e-01
1.449999999999999900e-01
1.449999999999999900e-01
1.039999999999999952e-01
1.859999999999999987e-01
1.239999999999999991e-01
1.239999999999999991e-01
1.449999999999999900e-01
1.449999999999999900e-01
1.449999999999999900e-01
1.239999999999999991e-01
1.449999999999999900e-01
4.349999999999999978e-01
2.899999999999999800e-01
1.449999999999999900e-01
1.239999999999999991e-01
1.449999999999999900e-01
1.239999999999999991e-01
1.660000000000000087e-01
1.449999999999999900e-01
1.449999999999999900e-01
1.449999999999999900e-01
1.859999999999999987e-01
1.449999999999999900e-01
1.039999999999999952e-01
3.519999999999999796e-01
1.449999999999999900e-01
1.449999999999999900e-01
1.449999999999999900e-01
1.859999999999999987e-01
1.859999999999999987e-01
1.660000000000000087e-01
1.660000000000000087e-01
1.859999999999999987e-01
1.239999999999999991e-01
1.449999999999999900e-01
1.859999999999999987e-01
1.660000000000000087e-01
1.239999999999999991e-01
5.180000000000000160e-01
2.690000000000000169e-01
1.859999999999999987e-01
1.449999999999999900e-01
1.449999999999999900e-01
1.239999999999999991e-01
1.239999999999999991e-01
1.859999999999999987e-01
1.239999999999999991e-01
1.239999999999999991e-01
2.690000000000000169e-01
2.069999999999999896e-01
1.239999999999999991e-01
1.859999999999999987e-01
1.449999999999999900e-01
1.660000000000000087e-01
2.690000000000000169e-01
2.899999999999999800e-01
1.859999999999999987e-01
1.449999999999999900e-01
1.239999999999999991e-01
1.449999999999999900e-01
1.449999999999999900e-01
2.069999999999999896e-01
1.449999999999999900e-01
1.449999999999999900e-01
1.660000000000000087e-01
1.660000000000000087e-01
1.239999999999999991e-01
2.069999999999999896e-01
1.660000000000000087e-01
1.660000000000000087e-01
2.069999999999999896e-01
3.310000000000000164e-01
2.489999999999999991e-01
1.449999999999999900e-01
1.660000000000000087e-01
1.449999999999999900e-01
1.449999999999999900e-01
1.239999999999999991e-01
2.069999999999999896e-01
1.239999999999999991e-01
2.069999999999999896e-01
1.660000000000000087e-01
1.859999999999999987e-01
1.039999999999999952e-01
1.449999999999999900e-01
1.239999999999999991e-01
1.449999999999999900e-01
3.109999999999999987e-01
3.519999999999999796e-01
1.449999999999999900e-01
1.449999999999999900e-01
1.239999999999999991e-01
1.660000000000000087e-01
1.859999999999999987e-01
1.859999999999999987e-01
1.449999999999999900e-01
1.239999999999999991e-01
1.039999999999999952e-01
1.449999999999999900e-01
1.859999999999999987e-01
1.449999999999999900e-01
1.859999999999999987e-01
1.859999999999999987e-01
3.729999999999999982e-01
3.310000000000000164e-01
1.239999999999999991e-01
1.239999999999999991e-01
1.660000000000000087e-01
1.859999999999999987e-01
1.239999999999999991e-01
1.239999999999999991e-01
1.239999999999999991e-01
1.660000000000000087e-01
1.039999999999999952e-01
1.449999999999999900e-01
1.449999999999999900e-01
1.449999999999999900e-01
1.039999999999999952e-01
3.109999999999999987e-01
2.280000000000000082e-01
1.660000000000000087e-01
1.449999999999999900e-01
1.449999999999999900e-01
1.239999999999999991e-01
1.660000000000000087e-01
1.239999999999999991e-01
1.660000000000000087e-01
2.280000000000000082e-01
1.660000000000000087e-01
2.069999999999999896e-01
1.239999999999999991e-01
1.039999999999999952e-01
3.940000000000000169e-01
1.859999999999999987e-01
1.239999999999999991e-01
1.039999999999999952e-01
1.239999999999999991e-01
1.449999999999999900e-01
1.449999999999999900e-01
1.449999999999999900e-01
1.239999999999999991e-01
1.239999999999999991e-01
1.660000000000000087e-01
1.660000000000000087e-01
1.660000000000000087e-01
3.519999999999999796e-01
2.899999999999999800e-01
1.239999999999999991e-01
1.239999999999999991e-01
1.239999999999999991e-01
2.069999999999999896e-01
1.660000000000000087e-01
1.239999999999999991e-01
2.069999999999999896e-01
1.449999999999999900e-01
1.239999999999999991e-01
1.449999999999999900e-01
1.449999999999999900e-01
1.239999999999999991e-01
1.660000000000000087e-01
5.390000000000000346e-01
1.239999999999999991e-01
1.239999999999999991e-01
1.039999999999999952e-01
1.039999999999999952e-01
1.449999999999999900e-01
1.660000000000000087e-01
2.069999999999999896e-01
1.039999999999999952e-01
1.449999999999999900e-01
1.660000000000000087e-01
1.449999999999999900e-01
1.239999999999999991e-01
1.449999999999999900e-01
1.449999999999999900e-01
2.690000000000000169e-01
4.349999999999999978e-01
1.859999999999999987e-01
1.239999999999999991e-01
2.069999999999999896e-01
1.660000000000000087e-01
2.069999999999999896e-01
1.449999999999999900e-01
1.239999999999999991e-01
1.660000000000000087e-01
1.449999999999999900e-01
1.039999999999999952e-01
1.239999999999999991e-01
1.239999999999999991e-01
2.280000000000000082e-01
1.239999999999999991e-01
1.449999999999999900e-01
4.349999999999999978e-01
1.660000000000000087e-01
1.239999999999999991e-01
1.660000000000000087e-01
1.449999999999999900e-01
2.069999999999999896e-01
1.660000000000000087e-01
1.859999999999999987e-01
2.069999999999999896e-01
1.239999999999999991e-01
1.239999999999999991e-01
1.039999999999999952e-01
1.239999999999999991e-01
1.239999999999999991e-01
1.660000000000000087e-01
2.899999999999999800e-01
3.109999999999999987e-01
1.660000000000000087e-01
1.449999999999999900e-01
1.660000000000000087e-01
1.039999999999999952e-01
1.239999999999999991e-01
1.239999999999999991e-01
1.449999999999999900e-01
1.660000000000000087e-01
1.449999999999999900e-01
1.660000000000000087e-01
1.239999999999999991e-01
2.069999999999999896e-01
2.899999999999999800e-01
2.899999999999999800e-01
1.449999999999999900e-01
1.449999999999999900e-01
1.660000000000000087e-01
1.039999999999999952e-01
1.449999999999999900e-01
1.239999999999999991e-01
1.239999999999999991e-01
1.660000000000000087e-01
1.660000000000000087e-01
1.449999999999999900e-01
1.039999999999999952e-01
1.239999999999999991e-01
3.519999999999999796e-01
1.660000000000000087e-01
1.449999999999999900e-01
1.239999999999999991e-01
1.239999999999999991e-01
1.660000000000000087e-01
1.449999999999999900e-01
1.660000000000000087e-01
1.449999999999999900e-01
1.859999999999999987e-01
1.039999999999999952e-01
1.449999999999999900e-01
3.109999999999999987e-01
3.109999999999999987e-01
1.449999999999999900e-01
1.239999999999999991e-01
1.449999999999999900e-01
1.449999999999999900e-01
8.300000000000000433e-02
1.239999999999999991e-01
1.660000000000000087e-01
1.449999999999999900e-01
1.239999999999999991e-01
1.660000000000000087e-01
1.660000000000000087e-01
3.109999999999999987e-01
2.899999999999999800e-01
1.239999999999999991e-01
1.449999999999999900e-01
1.449999999999999900e-01
1.449999999999999900e-01
1.239999999999999991e-01
1.660000000000000087e-01
1.239999999999999991e-01
1.039999999999999952e-01
1.239999999999999991e-01
1.449999999999999900e-01
1.239999999999999991e-01
1.039999999999999952e-01
1.859999999999999987e-01
1.239999999999999991e-01
4.769999999999999796e-01
1.859999999999999987e-01
1.039999999999999952e-01
1.239999999999999991e-01
1.449999999999999900e-01
1.660000000000000087e-01
1.449999999999999900e-01
1.859999999999999987e-01
1.039999999999999952e-01
2.069999999999999896e-01
1.449999999999999900e-01
1.660000000000000087e-01
1.039999999999999952e-01
1.039999999999999952e-01
1.039999999999999952e-01
2.069999999999999896e-01
4.769999999999999796e-01
1.660000000000000087e-01
1.449999999999999900e-01
1.660000000000000087e-01
1.239999999999999991e-01
1.859999999999999987e-01
1.660000000000000087e-01
1.859999999999999987e-01
2.489999999999999991e-01
1.449999999999999900e-01
1.660000000000000087e-01
2.489999999999999991e-01
1.859999999999999987e-01
1.660000000000000087e-01
1.859999999999999987e-01
2.690000000000000169e-01
4.560000000000000164e-01
1.449999999999999900e-01
1.039999999999999952e-01
1.660000000000000087e-01
1.449999999999999900e-01
1.660000000000000087e-01
1.239999999999999991e-01
1.449999999999999900e-01
1.660000000000000087e-01
1.660000000000000087e-01
1.449999999999999900e-01
1.239999999999999991e-01
2.069999999999999896e-01
1.039999999999999952e-01
2.280000000000000082e-01
3.310000000000000164e-01
1.660000000000000087e-01
1.239999999999999991e-01
1.859999999999999987e-01
1.239999999999999991e-01
1.660000000000000087e-01
1.660000000000000087e-01
1.239999999999999991e-01
1.660000000000000087e-01
1.449999999999999900e-01
1.239999999999999991e-01
1.449999999999999900e-01
1.449999999999999900e-01
1.660000000000000087e-01
3.519999999999999796e-01
1.239999999999999991e-01
1.449999999999999900e-01
1.239999999999999991e-01
1.449999999999999900e-01
1.449999999999999900e-01
1.239999999999999991e-01
1.239999999999999991e-01
1.660000000000000087e-01
1.239999999999999991e-01
1.449999999999999900e-01
1.449999999999999900e-01
2.690000000000000169e-01
3.310000000000000164e-01
1.239999999999999991e-01
1.660000000000000087e-01
1.039999999999999952e-01
1.449999999999999900e-01
1.660000000000000087e-01
1.239999999999999991e-01
1.239999999999999991e-01
1.449999999999999900e-01
1.239999999999999991e-01
1.660000000000000087e-01
2.069999999999999896e-01
3.519999999999999796e-01
1.239999999999999991e-01
1.449999999999999900e-01
1.449999999999999900e-01
1.449999999999999900e-01
1.239999999999999991e-01
2.069999999999999896e-01
1.449999999999999900e-01
2.069999999999999896e-01
1.449999999999999900e-01
1.859999999999999987e-01
1.660000000000000087e-01
3.519999999999999796e-01
3.109999999999999987e-01
1.239999999999999991e-01
1.239999999999999991e-01
1.239999999999999991e-01
1.449999999999999900e-01
1.449999999999999900e-01
1.239999999999999991e-01
1.449999999999999900e-01
1.039999999999999952e-01
1.859999999999999987e-01
1.660000000000000087e-01
1.449999999999999900e-01
1.660000000000000087e-01
1.449999999999999900e-01
4.560000000000000164e-01
1.660000000000000087e-01
1.859999999999999987e-01
1.039999999999999952e-01
1.449999999999999900e-01
1.660000000000000087e-01
1.660000000000000087e-01
1.449999999999999900e-01
1.239999999999999991e-01
1.660000000000000087e-01
1.039999999999999952e-01
1.239999999999999991e-01
1.449999999999999900e-01
1.239999999999999991e-01
1.449999999999999900e-01
1.449999999999999900e-01
4.139999999999999791e-01
1.449999999999999900e-01
1.449999999999999900e-01
1.660000000000000087e-01
1.660000000000000087e-01
1.859999999999999987e-01
2.069999999999999896e-01
1.449999999999999900e-01
1.239999999999999991e-01
1.660000000000000087e-01
1.660000000000000087e-01
1.239999999999999991e-01
1.239999999999999991e-01
1.660000000000000087e-01
1.660000000000000087e-01
1.449999999999999900e-01
4.139999999999999791e-01
1.660000000000000087e-01
1.449999999999999900e-01
1.660000000000000087e-01
1.859999999999999987e-01
2.069999999999999896e-01
2.280000000000000082e-01
1.660000000000000087e-01
1.660000000000000087e-01
1.449999999999999900e-01
1.449999999999999900e-01
1.859999999999999987e-01
1.449999999999999900e-01
1.239999999999999991e-01
1.449999999999999900e-01
3.519999999999999796e-01
4.349999999999999978e-01
1.660000000000000087e-01
1.660000000000000087e-01
1.859999999999999987e-01
1.239999999999999991e-01
1.239999999999999991e-01
1.239999999999999991e-01
1.660000000000000087e-01
1.449999999999999900e-01
1.239999999999999991e-01
1.039999999999999952e-01
1.239999999999999991e-01
1.239999999999999991e-01
1.239999999999999991e-01
3.729999999999999982e-01
1.660000000000000087e-01
1.660000000000000087e-01
1.239999999999999991e-01
1.449999999999999900e-01
1.660000000000000087e-01
1.660000000000000087e-01
1.239999999999999991e-01
1.449999999999999900e-01
1.660000000000000087e-01
1.660000000000000087e-01
1.039999999999999952e-01
2.069999999999999896e-01
4.349999999999999978e-01
1.239999999999999991e-01
1.039999999999999952e-01
1.449999999999999900e-01
1.449999999999999900e-01
1.239999999999999991e-01
1.449999999999999900e-01
1.859999999999999987e-01
2.069999999999999896e-01
1.660000000000000087e-01
1.859999999999999987e-01
1.660000000000000087e-01
3.519999999999999796e-01
1.660000000000000087e-01
1.239999999999999991e-01
1.449999999999999900e-01
8.300000000000000433e-02
1.239999999999999991e-01
1.239999999999999991e-01
1.039999999999999952e-01
1.449999999999999900e-01
1.449999999999999900e-01
1.660000000000000087e-01
1.449999999999999900e-01
3.109999999999999987e-01
3.729999999999999982e-01
2.069999999999999896e-01
1.239999999999999991e-01
1.039999999999999952e-01
1.660000000000000087e-01
1.239999999999999991e-01
8.300000000000000433e-02
1.239999999999999991e-01
1.660000000000000087e-01
1.660000000000000087e-01
1.660000000000000087e-01
1.449999999999999900e-01
1.239999999999999991e-01
4.349999999999999978e-01
1.660000000000000087e-01
2.280000000000000082e-01
1.239999999999999991e-01
1.449999999999999900e-01
1.239999999999999991e-01
1.660000000000000087e-01
1.660000000000000087e-01
1.449999999999999900e-01
1.660000000000000087e-01
1.660000000000000087e-01
1.660000000000000087e-01
1.660000000000000087e-01
1.449999999999999900e-01
1.239999999999999991e-01
1.859999999999999987e-01
4.560000000000000164e-01
1.859999999999999987e-01
1.449999999999999900e-01
1.239999999999999991e-01
1.239999999999999991e-01
1.039999999999999952e-01
1.449999999999999900e-01
1.859999999999999987e-01
1.449999999999999900e-01
1.449999999999999900e-01
1.239999999999999991e-01
1.039999999999999952e-01
1.660000000000000087e-01
1.660000000000000087e-01
1.859999999999999987e-01
1.449999999999999900e-01
4.560000000000000164e-01
1.660000000000000087e-01
1.660000000000000087e-01
1.239999999999999991e-01
1.239999999999999991e-01
1.239999999999999991e-01
1.660000000000000087e-01
1.239999999999999991e-01
1.660000000000000087e-01
1.239999999999999991e-01
1.859999999999999987e-01
1.449999999999999900e-01
1.239999999999999991e-01
1.449999999999999900e-01
1.660000000000000087e-01
3.310000000000000164e-01
2.690000000000000169e-01
1.239999999999999991e-01
1.239999999999999991e-01
1.449999999999999900e-01
1.449999999999999900e-01
1.239999999999999991e-01
1.660000000000000087e-01
1.039999999999999952e-01
1.239999999999999991e-01
1.239999999999999991e-01
1.239999999999999991e-01
1.660000000000000087e-01
1.660000000000000087e-01
3.109999999999999987e-01
2.489999999999999991e-01
1.449999999999999900e-01
1.449999999999999900e-01
1.449999999999999900e-01
1.859999999999999987e-01
1.039999999999999952e-01
1.449999999999999900e-01
1.449999999999999900e-01
1.859999999999999987e-01
1.660000000000000087e-01
1.039999999999999952e-01
1.660000000000000087e-01
3.729999999999999982e-01
1.449999999999999900e-01
1.039999999999999952e-01
1.239999999999999991e-01
1.449999999999999900e-01
1.859999999999999987e-01
1.239999999999999991e-01
1.239999999999999991e-01
1.039999999999999952e-01
1.239999999999999991e-01
1.449999999999999900e-01
1.039999999999999952e-01
2.899999999999999800e-01
2.899999999999999800e-01
1.449999999999999900e-01
1.239999999999999991e-01
1.449999999999999900e-01
1.239999999999999991e-01
1.660000000000000087e-01
1.449999999999999900e-01
1.660000000000000087e-01
1.239999999999999991e-01
1.859999999999999987e-01
1.449999999999999900e-01
1.449999999999999900e-01
3.940000000000000169e-01
2.690000000000000169e-01
1.239999999999999991e-01
1.660000000000000087e-01
1.449999999999999900e-01
1.239999999999999991e-01
1.660000000000000087e-01
1.859999999999999987e-01
1.449999999999999900e-01
1.239999999999999991e-01
1.859999999999999987e-01
1.449999999999999900e-01
1.660000000000000087e-01
1.239999999999999991e-01
2.280000000000000082e-01
4.969999999999999973e-01
1.239999999999999991e-01
1.449999999999999900e-01
1.449999999999999900e-01
1.239999999999999991e-01
1.660000000000000087e-01
1.039999999999999952e-01
1.239999999999999991e-01
1.660000000000000087e-01
1.449999999999999900e-01
1.660000000000000087e-01
1.039999999999999952e-01
1.449999999999999900e-01
1.449999999999999900e-01
8.300000000000000433e-02
4.560000000000000164e-01
3.310000000000000164e-01
1.039999999999999952e-01
1.039999999999999952e-01
1.859999999999999987e-01
1.660000000000000087e-01
1.660000000000000087e-01
1.449999999999999900e-01
1.660000000000000087e-01
1.660000000000000087e-01
1.660000000000000087e-01
1.660000000000000087e-01
1.239999999999999991e-01
1.449999999999999900e-01
1.660000000000000087e-01
3.310000000000000164e-01
3.519999999999999796e-01
2.069999999999999896e-01
1.449999999999999900e-01
1.039999999999999952e-01
1.239999999999999991e-01
1.449999999999999900e-01
1.239999999999999991e-01
1.039999999999999952e-01
1.039999999999999952e-01
1.239999999999999991e-01
1.449999999999999900e-01
1.239999999999999991e-01
1.039999999999999952e-01
1.859999999999999987e-01
3.729999999999999982e-01
3.109999999999999987e-01
1.039999999999999952e-01
1.239999999999999991e-01
1.449999999999999900e-01
1.449999999999999900e-01
1.449999999999999900e-01
1.449999999999999900e-01
1.449999999999999900e-01
1.660000000000000087e-01
1.039999999999999952e-01
1.239999999999999991e-01
1.449999999999999900e-01
3.729999999999999982e-01
3.519999999999999796e-01
1.660000000000000087e-01
1.449999999999999900e-01
1.449999999999999900e-01
1.859999999999999987e-01
1.449999999999999900e-01
1.239999999999999991e-01
1.660000000000000087e-01
1.660000000000000087e-01
1.449999999999999900e-01
1.449999999999999900e-01
3.109999999999999987e-01
2.899999999999999800e-01
1.660000000000000087e-01
1.449999999999999900e-01
1.660000000000000087e-01
1.660000000000000087e-01
1.039999999999999952e-01
1.449999999999999900e-01
1.660000000000000087e-01
1.039999999999999952e-01
1.449999999999999900e-01
1.449999999999999900e-01
3.109999999999999987e-01
1.239999999999999991e-01
1.660000000000000087e-01
8.300000000000000433e-02
1.660000000000000087e-01
1.239999999999999991e-01
1.660000000000000087e-01
1.239999999999999991e-01
1.660000000000000087e-01
1.039999999999999952e-01
8.300000000000000433e-02
4.769999999999999796e-01
4.769999999999999796e-01
2.280000000000000082e-01
1.239999999999999991e-01
1.449999999999999900e-01
1.660000000000000087e-01
1.239999999999999991e-01
1.449999999999999900e-01
1.239999999999999991e-01
1.239999999999999991e-01
1.239999999999999991e-01
1.660000000000000087e-01
1.660000000000000087e-01
1.449999999999999900e-01
1.660000000000000087e-01
2.280000000000000082e-01
3.310000000000000164e-01
1.239999999999999991e-01
1.239999999999999991e-01
1.039999999999999952e-01
1.859999999999999987e-01
1.239999999999999991e-01
1.449999999999999900e-01
1.239999999999999991e-01
1.239999999999999991e-01
1.239999999999999991e-01
1.449999999999999900e-01
1.859999999999999987e-01
1.039999999999999952e-01
1.859999999999999987e-01
1.660000000000000087e-01
4.349999999999999978e-01
1.449999999999999900e-01
1.239999999999999991e-01
1.660000000000000087e-01
1.660000000000000087e-01
1.660000000000000087e-01
1.660000000000000087e-01
1.239999999999999991e-01
1.039999999999999952e-01
1.239999999999999991e-01
1.449999999999999900e-01
1.449999999999999900e-01
2.069999999999999896e-01
1.660000000000000087e-01
1.449999999999999900e-01
1.859999999999999987e-01
5.180000000000000160e-01
1.859999999999999987e-01
2.069999999999999896e-01
1.239999999999999991e-01
1.449999999999999900e-01
2.280000000000000082e-01
1.239999999999999991e-01
1.449999999999999900e-01
1.449999999999999900e-01
1.449999999999999900e-01
1.449999999999999900e-01
1.239999999999999991e-01
1.239999999999999991e-01
1.039999999999999952e-01
1.859999999999999987e-01
4.769999999999999796e-01
2.690000000000000169e-01
1.239999999999999991e-01
1.239999999999999991e-01
1.239999999999999991e-01
1.239999999999999991e-01
2.069999999999999896e-01
1.449999999999999900e-01
1.449999999999999900e-01
1.859999999999999987e-01
1.859999999999999987e-01
1.449999999999999900e-01
1.449999999999999900e-01
1.039999999999999952e-01
1.660000000000000087e-01
3.940000000000000169e-01
2.069999999999999896e-01
1.660000000000000087e-01
2.069999999999999896e-01
1.449999999999999900e-01
1.449999999999999900e-01
1.449999999999999900e-01
1.449999999999999900e-01
1.039999999999999952e-01
1.239999999999999991e-01
1.039999999999999952e-01
1.449999999999999900e-01
1.660000000000000087e-01
4.769999999999999796e-01
2.069999999999999896e-01
1.449999999999999900e-01
1.660000000000000087e-01
1.449999999999999900e-01
3.940000000000000169e-01
3.519999999999999796e-01
1.449999999999999900e-01
1.039999999999999952e-01
1.449999999999999900e-01
1.660000000000000087e-01
1.660000000000000087e-01
3.519999999999999796e-01
1.859999999999999987e-01
8.300000000000000433e-02
1.660000000000000087e-01
1.660000000000000087e-01
1.239999999999999991e-01
1.859999999999999987e-01
1.660000000000000087e-01
1.660000000000000087e-01
1.239999999999999991e-01
1.660000000000000087e-01
1.239999999999999991e-01
2.489999999999999991e-01
3.109999999999999987e-01
1.660000000000000087e-01
1.239999999999999991e-01
1.239999999999999991e-01
1.239999999999999991e-01
1.449999999999999900e-01
1.660000000000000087e-01
1.449999999999999900e-01
1.660000000000000087e-01
1.449999999999999900e-01
1.449999999999999900e-01
1.239999999999999991e-01
2.280000000000000082e-01
3.519999999999999796e-01
1.660000000000000087e-01
1.239999999999999991e-01
1.859999999999999987e-01
1.449999999999999900e-01
1.239999999999999991e-01
1.039999999999999952e-01
1.239999999999999991e-01
8.300000000000000433e-02
1.239999999999999991e-01
1.239999999999999991e-01
1.039999999999999952e-01
2.280000000000000082e-01
4.560000000000000164e-01
1.449999999999999900e-01
1.660000000000000087e-01
1.239999999999999991e-01
1.449999999999999900e-01
1.239999999999999991e-01
1.239999999999999991e-01
1.660000000000000087e-01
1.449999999999999900e-01
1.660000000000000087e-01
1.449999999999999900e-01
2.280000000000000082e-01
1.449999999999999900e-01
1.449999999999999900e-01
1.039999999999999952e-01
4.969999999999999973e-01
2.489999999999999991e-01
1.239999999999999991e-01
1.859999999999999987e-01
1.660000000000000087e-01
2.069999999999999896e-01
1.039999999999999952e-01
1.239999999999999991e-01
1.660000000000000087e-01
1.239999999999999991e-01
1.660000000000000087e-01
1.239999999999999991e-01
1.449999999999999900e-01
1.859999999999999987e-01
1.239999999999999991e-01
3.940000000000000169e-01
2.690000000000000169e-01
1.239999999999999991e-01
8.300000000000000433e-02
1.449999999999999900e-01
1.239999999999999991e-01
1.660000000000000087e-01
1.239999999999999991e-01
1.660000000000000087e-01
1.239999999999999991e-01
1.239999999999999991e-01
1.449999999999999900e-01
1.449999999999999900e-01
1.859999999999999987e-01
1.660000000000000087e-01
4.139999999999999791e-01
1.039999999999999952e-01
1.449999999999999900e-01
1.449999999999999900e-01
1.449999999999999900e-01
1.239999999999999991e-01
1.039999999999999952e-01
1.039999999999999952e-01
1.859999999999999987e-01
1.039999999999999952e-01
1.859999999999999987e-01
1.660000000000000087e-01
1.039999999999999952e-01
1.039999999999999952e-01
2.899999999999999800e-01
3.310000000000000164e-01
1.449999999999999900e-01
1.239999999999999991e-01
1.660000000000000087e-01
1.239999999999999991e-01
1.449999999999999900e-01
2.069999999999999896e-01
1.660000000000000087e-01
1.660000000000000087e-01
1.449999999999999900e-01
1.449999999999999900e-01
1.239999999999999991e-01
1.859999999999999987e-01
2.690000000000000169e-01
1.239999999999999991e-01
1.239999999999999991e-01
1.449999999999999900e-01
1.449999999999999900e-01
1.239999999999999991e-01
1.039999999999999952e-01
1.239999999999999991e-01
1.660000000000000087e-01
1.449999999999999900e-01
2.280000000000000082e-01
2.069999999999999896e-01
3.519999999999999796e-01
1.449999999999999900e-01
2.069999999999999896e-01
1.449999999999999900e-01
1.660000000000000087e-01
1.039999999999999952e-01
1.660000000000000087e-01
1.239999999999999991e-01
1.239999999999999991e-01
1.449999999999999900e-01
1.449999999999999900e-01
2.690000000000000169e-01
3.109999999999999987e-01
1.239999999999999991e-01
1.239999999999999991e-01
1.039999999999999952e-01
1.660000000000000087e-01
1.449999999999999900e-01
1.239999999999999991e-01
1.660000000000000087e-01
1.039999999999999952e-01
1.449999999999999900e-01
1.449999999999999900e-01
3.519999999999999796e-01
2.690000000000000169e-01
1.239999999999999991e-01
1.660000000000000087e-01
1.039999999999999952e-01
1.660000000000000087e-01
1.239999999999999991e-01
1.039999999999999952e-01
1.239999999999999991e-01
1.239999999999999991e-01
2.069999999999999896e-01
2.069999999999999896e-01
1.239999999999999991e-01
2.280000000000000082e-01
4.349999999999999978e-01
1.859999999999999987e-01
1.449999999999999900e-01
2.069999999999999896e-01
1.449999999999999900e-01
1.449999999999999900e-01
1.239999999999999991e-01
1.449999999999999900e-01
1.039999999999999952e-01
1.039999999999999952e-01
1.449999999999999900e-01
1.660000000000000087e-01
1.239999999999999991e-01
1.239999999999999991e-01
1.239999999999999991e-01
3.729999999999999982e-01
4.139999999999999791e-01
1.660000000000000087e-01
1.239999999999999991e-01
2.069999999999999896e-01
1.449999999999999900e-01
1.449999999999999900e-01
1.660000000000000087e-01
1.859999999999999987e-01
1.660000000000000087e-01
1.859999999999999987e-01
1.239999999999999991e-01
1.239999999999999991e-01
1.449999999999999900e-01
1.660000000000000087e-01
1.660000000000000087e-01
4.560000000000000164e-01
1.859999999999999987e-01
1.239999999999999991e-01
1.449999999999999900e-01
1.239999999999999991e-01
1.449999999999999900e-01
1.449999999999999900e-01
1.239999999999999991e-01
1.239999999999999991e-01
1.660000000000000087e-01
1.449999999999999900e-01
1.449999999999999900e-01
1.449999999999999900e-01
1.660000000000000087e-01
1.449999999999999900e-01
3.519999999999999796e-01
4.139999999999999791e-01
1.449999999999999900e-01
1.449999999999999900e-01
1.449999999999999900e-01
1.239999999999999991e-01
1.239999999999999991e-01
1.039999999999999952e-01
1.449999999999999900e-01
1.859999999999999987e-01
1.449999999999999900e-01
1.239999999999999991e-01
1.660000000000000087e-01
1.660000000000000087e-01
1.660000000000000087e-01
4.139999999999999791e-01
2.069999999999999896e-01
1.449999999999999900e-01
1.449999999999999900e-01
1.660000000000000087e-01
1.039999999999999952e-01
1.660000000000000087e-01
8.300000000000000433e-02
1.039999999999999952e-01
1.239999999999999991e-01
1.239999999999999991e-01
1.449999999999999900e-01
1.660000000000000087e-01
1.660000000000000087e-01
3.519999999999999796e-01
1.859999999999999987e-01
1.449999999999999900e-01
1.039999999999999952e-01
1.239999999999999991e-01
1.660000000000000087e-01
1.449999999999999900e-01
1.660000000000000087e-01
1.660000000000000087e-01
1.449999999999999900e-01
1.660000000000000087e-01
1.039999999999999952e-01
2.489999999999999991e-01
3.109999999999999987e-01
1.239999999999999991e-01
1.859999999999999987e-01
1.660000000000000087e-01
2.069999999999999896e-01
1.449999999999999900e-01
1.039999999999999952e-01
1.039999999999999952e-01
1.859999999999999987e-01
2.069999999999999896e-01
1.660000000000000087e-01
3.310000000000000164e-01
1.449999999999999900e-01
1.660000000000000087e-01
1.449999999999999900e-01
1.239999999999999991e-01
1.449999999999999900e-01
1.449999999999999900e-01
1.660000000000000087e-01
1.039999999999999952e-01
1.660000000000000087e-01
1.449999999999999900e-01
3.519999999999999796e-01
3.940000000000000169e-01
1.449999999999999900e-01
1.859999999999999987e-01
1.239999999999999991e-01
1.239999999999999991e-01
8.300000000000000433e-02
1.239999999999999991e-01
1.660000000000000087e-01
1.239999999999999991e-01
1.859999999999999987e-01
1.660000000000000087e-01
2.069999999999999896e-01
4.139999999999999791e-01
1.449999999999999900e-01
1.449999999999999900e-01
1.859999999999999987e-01
1.239999999999999991e-01
1.449999999999999900e-01
1.449999999999999900e-01
1.660000000000000087e-01
1.660000000000000087e-01
1.239999999999999991e-01
1.239999999999999991e-01
1.039999999999999952e-01
2.069999999999999896e-01
1.449999999999999900e-01
3.310000000000000164e-01
3.519999999999999796e-01
2.069999999999999896e-01
2.069999999999999896e-01
1.449999999999999900e-01
1.239999999999999991e-01
1.239999999999999991e-01
1.660000000000000087e-01
1.660000000000000087e-01
1.239999999999999991e-01
1.660000000000000087e-01
2.690000000000000169e-01
1.239999999999999991e-01
1.660000000000000087e-01
8.300000000000000433e-02
1.239999999999999991e-01
4.769999999999999796e-01
1.449999999999999900e-01
1.239999999999999991e-01
1.660000000000000087e-01
1.859999999999999987e-01
1.239999999999999991e-01
1.660000000000000087e-01
1.859999999999999987e-01
1.449999999999999900e-01
1.660000000000000087e-01
1.449999999999999900e-01
1.859999999999999987e-01
1.449999999999999900e-01
2.069999999999999896e-01
1.660000000000000087e-01
3.729999999999999982e-01
4.139999999999999791e-01
1.660000000000000087e-01
2.069999999999999896e-01
1.449999999999999900e-01
1.449999999999999900e-01
1.449999999999999900e-01
1.239999999999999991e-01
1.449999999999999900e-01
1.660000000000000087e-01
1.660000000000000087e-01
1.039999999999999952e-01
1.449999999999999900e-01
1.660000000000000087e-01
1.449999999999999900e-01
3.729999999999999982e-01
2.069999999999999896e-01
1.660000000000000087e-01
1.660000000000000087e-01
1.660000000000000087e-01
1.449999999999999900e-01
1.660000000000000087e-01
1.039999999999999952e-01
1.449999999999999900e-01
2.069999999999999896e-01
1.660000000000000087e-01
1.449999999999999900e-01
1.449999999999999900e-01
1.039999999999999952e-01
3.109999999999999987e-01
2.069999999999999896e-01
1.449999999999999900e-01
1.859999999999999987e-01
1.039999999999999952e-01
1.039999999999999952e-01
1.039999999999999952e-01
1.239999999999999991e-01
1.239999999999999991e-01
1.239999999999999991e-01
1.239999999999999991e-01
1.449999999999999900e-01
3.310000000000000164e-01
2.899999999999999800e-01
1.239999999999999991e-01
1.039999999999999952e-01
1.039999999999999952e-01
1.449999999999999900e-01
1.039999999999999952e-01
1.239999999999999991e-01
1.239999999999999991e-01
1.039999999999999952e-01
2.280000000000000082e-01
2.489999999999999991e-01
2.690000000000000169e-01
1.039999999999999952e-01
1.660000000000000087e-01
1.859999999999999987e-01
1.239999999999999991e-01
2.069999999999999896e-01
1.239999999999999991e-01
1.449999999999999900e-01
1.039999999999999952e-01
1.660000000000000087e-01
2.489999999999999991e-01
3.519999999999999796e-01
1.039999999999999952e-01
1.660000000000000087e-01
1.660000000000000087e-01
1.039999999999999952e-01
1.449999999999999900e-01
1.660000000000000087e-01
1.239999999999999991e-01
1.859999999999999987e-01
1.039999999999999952e-01
1.239999999999999991e-01
2.280000000000000082e-01
4.769999999999999796e-01
1.859999999999999987e-01
1.660000000000000087e-01
1.449999999999999900e-01
1.660000000000000087e-01
1.239999999999999991e-01
1.039999999999999952e-01
1.660000000000000087e-01
1.449999999999999900e-01
1.660000000000000087e-01
1.449999999999999900e-01
8.300000000000000433e-02
1.239999999999999991e-01
1.449999999999999900e-01
3.519999999999999796e-01
2.899999999999999800e-01
1.660000000000000087e-01
1.039999999999999952e-01
1.039999999999999952e-01
8.300000000000000433e-02
1.039999999999999952e-01
1.660000000000000087e-01
2.069999999999999896e-01
1.239999999999999991e-01
1.660000000000000087e-01
1.239999999999999991e-01
1.859999999999999987e-01
1.239999999999999991e-01
2.069999999999999896e-01
1.449999999999999900e-01
5.180000000000000160e-01
1.449999999999999900e-01
1.039999999999999952e-01
1.239999999999999991e-01
1.239999999999999991e-01
1.449999999999999900e-01
1.239999999999999991e-01
1.239999999999999991e-01
1.449999999999999900e-01
2.069999999999999896e-01
1.859999999999999987e-01
2.069999999999999896e-01
1.859999999999999987e-01
2.069999999999999896e-01
2.069999999999999896e-01
1.859999999999999987e-01
4.560000000000000164e-01
1.449999999999999900e-01
1.239999999999999991e-01
1.039999999999999952e-01
1.449999999999999900e-01
1.239999999999999991e-01
1.239999999999999991e-01
1.239999999999999991e-01
1.039999999999999952e-01
1.039999999999999952e-01
1.039999999999999952e-01
1.859999999999999987e-01
2.069999999999999896e-01
1.660000000000000087e-01
1.859999999999999987e-01
4.349999999999999978e-01
2.069999999999999896e-01
1.859999999999999987e-01
1.239999999999999991e-01
2.069999999999999896e-01
1.239999999999999991e-01
1.239999999999999991e-01
1.239999999999999991e-01
1.449999999999999900e-01
1.449999999999999900e-01
1.449999999999999900e-01
1.039999999999999952e-01
1.449999999999999900e-01
1.449999999999999900e-01
1.859999999999999987e-01
3.729999999999999982e-01
1.660000000000000087e-01
1.660000000000000087e-01
2.069999999999999896e-01
1.449999999999999900e-01
1.660000000000000087e-01
1.039999999999999952e-01
1.660000000000000087e-01
1.449999999999999900e-01
1.449999999999999900e-01
1.859999999999999987e-01
1.449999999999999900e-01
3.519999999999999796e-01
3.109999999999999987e-01
1.660000000000000087e-01
1.449999999999999900e-01
1.449999999999999900e-01
1.239999999999999991e-01
1.449999999999999900e-01
2.069999999999999896e-01
1.449999999999999900e-01
2.069999999999999896e-01
1.449999999999999900e-01
1.449999999999999900e-01
2.069999999999999896e-01
3.109999999999999987e-01
1.859999999999999987e-01
1.449999999999999900e-01
1.449999999999999900e-01
1.239999999999999991e-01
1.449999999999999900e-01
1.449999999999999900e-01
1.039999999999999952e-01
1.660000000000000087e-01
1.660000000000000087e-01
1.660000000000000087e-01
1.239999999999999991e-01
4.349999999999999978e-01
2.069999999999999896e-01
1.039999999999999952e-01
1.239999999999999991e-01
1.239999999999999991e-01
1.039999999999999952e-01
1.239999999999999991e-01
1.039999999999999952e-01
1.239999999999999991e-01
1.449999999999999900e-01
1.239999999999999991e-01
2.069999999999999896e-01
1.039999999999999952e-01
1.859999999999999987e-01
1.660000000000000087e-01
1.449999999999999900e-01
1.239999999999999991e-01
1.660000000000000087e-01
1.660000000000000087e-01
1.239999999999999991e-01
8.300000000000000433e-02
1.449999999999999900e-01
1.449999999999999900e-01
1.039999999999999952e-01
1.449999999999999900e-01
1.859999999999999987e-01
1.859999999999999987e-01
1.660000000000000087e-01
1.660000000000000087e-01
3.109999999999999987e-01
2.899999999999999800e-01
1.660000000000000087e-01
1.239999999999999991e-01
2.069999999999999896e-01
1.239999999999999991e-01
1.859999999999999987e-01
1.660000000000000087e-01
1.239999999999999991e-01
1.449999999999999900e-01
1.239999999999999991e-01
1.039999999999999952e-01
1.449999999999999900e-01
1.660000000000000087e-01
1.239999999999999991e-01
1.660000000000000087e-01
4.349999999999999978e-01
2.280000000000000082e-01
1.239999999999999991e-01
1.859999999999999987e-01
1.449999999999999900e-01
1.239999999999999991e-01
1.859999999999999987e-01
1.660000000000000087e-01
1.239999999999999991e-01
1.660000000000000087e-01
1.449999999999999900e-01
1.449999999999999900e-01
1.239999999999999991e-01
1.449999999999999900e-01
1.859999999999999987e-01
4.139999999999999791e-01
1.239999999999999991e-01
1.449999999999999900e-01
1.449999999999999900e-01
1.239999999999999991e-01
1.039999999999999952e-01
1.239999999999999991e-01
1.660000000000000087e-01
1.449999999999999900e-01
1.239999999999999991e-01
1.660000000000000087e-01
1.039999999999999952e-01
1.039999999999999952e-01
1.660000000000000087e-01
4.560000000000000164e-01
1.859999999999999987e-01
1.239999999999999991e-01
1.039999999999999952e-01
1.039999999999999952e-01
2.069999999999999896e-01
1.239999999999999991e-01
1.660000000000000087e-01
1.449999999999999900e-01
1.039999999999999952e-01
1.449999999999999900e-01
1.449999999999999900e-01
3.310000000000000164e-01
2.899999999999999800e-01
1.660000000000000087e-01
1.859999999999999987e-01
1.660000000000000087e-01
1.449999999999999900e-01
1.239999999999999991e-01
1.449999999999999900e-01
2.069999999999999896e-01
1.449999999999999900e-01
1.239999999999999991e-01
1.660000000000000087e-01
2.899999999999999800e-01
2.069999999999999896e-01
1.239999999999999991e-01
1.239999999999999991e-01
8.300000000000000433e-02
1.660000000000000087e-01
1.449999999999999900e-01
1.039999999999999952e-01
1.449999999999999900e-01
1.859999999999999987e-01
1.449999999999999900e-01
1.449999999999999900e-01
2.690000000000000169e-01
1.239999999999999991e-01
1.239999999999999991e-01
1.239999999999999991e-01
1.239999999999999991e-01
1.449999999999999900e-01
1.239999999999999991e-01
1.660000000000000087e-01
1.239999999999999991e-01
1.449999999999999900e-01
1.239999999999999991e-01
1.660000000000000087e-01
1.660000000000000087e-01
3.729999999999999982e-01
1.859999999999999987e-01
1.239999999999999991e-01
1.039999999999999952e-01
1.449999999999999900e-01
1.660000000000000087e-01
1.449999999999999900e-01
1.449999999999999900e-01
1.039999999999999952e-01
1.449999999999999900e-01
1.239999999999999991e-01
1.449999999999999900e-01
1.449999999999999900e-01
1.239999999999999991e-01
1.039999999999999952e-01
3.940000000000000169e-01
3.519999999999999796e-01
1.039999999999999952e-01
1.239999999999999991e-01
1.660000000000000087e-01
1.239999999999999991e-01
1.449999999999999900e-01
1.449999999999999900e-01
8.300000000000000433e-02
1.239999999999999991e-01
2.069999999999999896e-01
1.449999999999999900e-01
1.239999999999999991e-01
1.239999999999999991e-01
1.859999999999999987e-01
1.239999999999999991e-01
4.560000000000000164e-01
1.660000000000000087e-01
1.239999999999999991e-01
1.449999999999999900e-01
1.239999999999999991e-01
1.660000000000000087e-01
1.859999999999999987e-01
1.239999999999999991e-01
1.660000000000000087e-01
1.660000000000000087e-01
1.449999999999999900e-01
1.449999999999999900e-01
1.239999999999999991e-01
1.449999999999999900e-01
1.859999999999999987e-01
4.349999999999999978e-01
1.449999999999999900e-01
1.239999999999999991e-01
1.239999999999999991e-01
1.039999999999999952e-01
1.239999999999999991e-01
2.069999999999999896e-01
1.660000000000000087e-01
1.449999999999999900e-01
1.859999999999999987e-01
1.239999999999999991e-01
1.039999999999999952e-01
1.239999999999999991e-01
2.069999999999999896e-01
3.940000000000000169e-01
1.239999999999999991e-01
1.239999999999999991e-01
1.660000000000000087e-01
1.859999999999999987e-01
1.239999999999999991e-01
1.239999999999999991e-01
1.239999999999999991e-01
1.039999999999999952e-01
1.239999999999999991e-01
1.660000000000000087e-01
2.069999999999999896e-01
3.109999999999999987e-01
1.039999999999999952e-01
1.239999999999999991e-01
1.239999999999999991e-01
1.449999999999999900e-01
1.239999999999999991e-01
8.300000000000000433e-02
1.239999999999999991e-01
1.449999999999999900e-01
1.660000000000000087e-01
1.239999999999999991e-01
3.519999999999999796e-01
2.690000000000000169e-01
1.449999999999999900e-01
1.239999999999999991e-01
1.859999999999999987e-01
1.239999999999999991e-01
1.239999999999999991e-01
1.239999999999999991e-01
1.449999999999999900e-01
1.239999999999999991e-01
1.449999999999999900e-01
2.489999999999999991e-01
1.660000000000000087e-01
1.859999999999999987e-01
1.660000000000000087e-01
1.660000000000000087e-01
1.859999999999999987e-01
1.859999999999999987e-01
1.660000000000000087e-01
1.239999999999999991e-01
1.239999999999999991e-01
1.239999999999999991e-01
1.239999999999999991e-01
1.039999999999999952e-01
3.310000000000000164e-01
3.310000000000000164e-01
1.660000000000000087e-01
1.239999999999999991e-01
2.069999999999999896e-01
1.239999999999999991e-01
1.449999999999999900e-01
1.239999999999999991e-01
1.660000000000000087e-01
1.239999999999999991e-01
1.239999999999999991e-01
1.660000000000000087e-01
1.660000000000000087e-01
1.449999999999999900e-01
1.239999999999999991e-01
2.489999999999999991e-01
4.769999999999999796e-01
1.239999999999999991e-01
1.239999999999999991e-01
1.039999999999999952e-01
1.239999999999999991e-01
1.449999999999999900e-01
1.039999999999999952e-01
1.449999999999999900e-01
1.449999999999999900e-01
1.449999999999999900e-01
1.660000000000000087e-01
1.239999999999999991e-01
1.449999999999999900e-01
1.239999999999999991e-01
1.660000000000000087e-01
5.390000000000000346e-01
2.489999999999999991e-01
1.660000000000000087e-01
1.239999999999999991e-01
1.239999999999999991e-01
1.660000000000000087e-01
1.449999999999999900e-01
1.660000000000000087e-01
1.239999999999999991e-01
1.660000000000000087e-01
1.449999999999999900e-01
1.449999999999999900e-01
1.859999999999999987e-01
1.449999999999999900e-01
1.660000000000000087e-01
3.729999999999999982e-01
3.310000000000000164e-01
1.449999999999999900e-01
1.239999999999999991e-01
2.489999999999999991e-01
1.660000000000000087e-01
1.039999999999999952e-01
2.489999999999999991e-01
1.239999999999999991e-01
1.239999999999999991e-01
1.449999999999999900e-01
1.859999999999999987e-01
1.449999999999999900e-01
1.239999999999999991e-01
1.660000000000000087e-01
4.139999999999999791e-01
2.489999999999999991e-01
1.449999999999999900e-01
1.449999999999999900e-01
1.660000000000000087e-01
1.660000000000000087e-01
1.039999999999999952e-01
2.069999999999999896e-01
1.660000000000000087e-01
1.239999999999999991e-01
1.660000000000000087e-01
1.239999999999999991e-01
1.449999999999999900e-01
3.519999999999999796e-01
3.310000000000000164e-01
1.660000000000000087e-01
1.449999999999999900e-01
1.660000000000000087e-01
1.239999999999999991e-01
1.039999999999999952e-01
1.239999999999999991e-01
1.239999999999999991e-01
1.239999999999999991e-01
2.069999999999999896e-01
2.690000000000000169e-01
2.899999999999999800e-01
3.109999999999999987e-01
1.449999999999999900e-01
1.239999999999999991e-01
1.239999999999999991e-01
1.239999999999999991e-01
1.660000000000000087e-01
1.239999999999999991e-01
1.239999999999999991e-01
1.859999999999999987e-01
1.449999999999999900e-01
1.660000000000000087e-01
3.109999999999999987e-01
2.489999999999999991e-01
1.039999999999999952e-01
1.239999999999999991e-01
1.039999999999999952e-01
1.239999999999999991e-01
1.449999999999999900e-01
2.069999999999999896e-01
1.660000000000000087e-01
1.239999999999999991e-01
1.239999999999999991e-01
1.449999999999999900e-01
1.449999999999999900e-01
3.109999999999999987e-01
2.899999999999999800e-01
1.039999999999999952e-01
1.039999999999999952e-01
1.449999999999999900e-01
1.449999999999999900e-01
1.039999999999999952e-01
1.660000000000000087e-01
1.239999999999999991e-01
1.039999999999999952e-01
1.660000000000000087e-01
2.280000000000000082e-01
1.660000000000000087e-01
1.039999999999999952e-01
1.660000000000000087e-01
3.310000000000000164e-01
3.729999999999999982e-01
2.489999999999999991e-01
2.069999999999999896e-01
1.239999999999999991e-01
1.039999999999999952e-01
1.449999999999999900e-01
1.239999999999999991e-01
1.660000000000000087e-01
1.660000000000000087e-01
1.449999999999999900e-01
1.449999999999999900e-01
1.449999999999999900e-01
1.239999999999999991e-01
1.660000000000000087e-01
1.039999999999999952e-01
5.180000000000000160e-01
1.449999999999999900e-01
1.239999999999999991e-01
1.660000000000000087e-01
1.239999999999999991e-01
1.239999999999999991e-01
1.239999999999999991e-01
1.859999999999999987e-01
1.239999999999999991e-01
1.859999999999999987e-01
1.449999999999999900e-01
1.239999999999999991e-01
1.660000000000000087e-01
1.449999999999999900e-01
3.729999999999999982e-01
3.519999999999999796e-01
1.039999999999999952e-01
1.239999999999999991e-01
1.449999999999999900e-01
1.239999999999999991e-01
1.449999999999999900e-01
1.449999999999999900e-01
1.449999999999999900e-01
1.039999999999999952e-01
1.239999999999999991e-01
1.039999999999999952e-01
1.239999999999999991e-01
1.039999999999999952e-01
1.660000000000000087e-01
3.729999999999999982e-01
1.660000000000000087e-01
1.449999999999999900e-01
1.660000000000000087e-01
1.660000000000000087e-01
1.859999999999999987e-01
1.660000000000000087e-01
1.239999999999999991e-01
1.449999999999999900e-01
1.239999999999999991e-01
2.280000000000000082e-01
1.859999999999999987e-01
1.859999999999999987e-01
3.519999999999999796e-01
1.660000000000000087e-01
1.660000000000000087e-01
1.039999999999999952e-01
1.039999999999999952e-01
1.039999999999999952e-01
1.449999999999999900e-01
1.039999999999999952e-01
1.449999999999999900e-01
1.449999999999999900e-01
1.239999999999999991e-01
2.069999999999999896e-01
4.139999999999999791e-01
2.069999999999999896e-01
1.039999999999999952e-01
1.239999999999999991e-01
1.449999999999999900e-01
1.449999999999999900e-01
1.239999999999999991e-01
1.239999999999999991e-01
1.239999999999999991e-01
1.239999999999999991e-01
1.859999999999999987e-01
1.660000000000000087e-01
3.109999999999999987e-01
3.310000000000000164e-01
1.449999999999999900e-01
1.859999999999999987e-01
1.449999999999999900e-01
1.239999999999999991e-01
1.660000000000000087e-01
1.039999999999999952e-01
1.039999999999999952e-01
1.660000000000000087e-01
1.039999999999999952e-01
1.239999999999999991e-01
1.449999999999999900e-01
1.239999999999999991e-01
3.519999999999999796e-01
1.039999999999999952e-01
1.239999999999999991e-01
1.449999999999999900e-01
1.660000000000000087e-01
1.859999999999999987e-01
1.660000000000000087e-01
1.449999999999999900e-01
1.660000000000000087e-01
1.239999999999999991e-01
1.239999999999999991e-01
1.449999999999999900e-01
1.449999999999999900e-01
1.660000000000000087e-01
3.940000000000000169e-01
3.519999999999999796e-01
1.859999999999999987e-01
1.660000000000000087e-01
1.449999999999999900e-01
1.449999999999999900e-01
1.859999999999999987e-01
1.660000000000000087e-01
1.449999999999999900e-01
8.300000000000000433e-02
1.859999999999999987e-01
1.239999999999999991e-01
1.449999999999999900e-01
1.660000000000000087e-01
1.239999999999999991e-01
1.660000000000000087e-01
3.940000000000000169e-01
1.449999999999999900e-01
1.039999999999999952e-01
1.239999999999999991e-01
1.239999999999999991e-01
1.239999999999999991e-01
1.449999999999999900e-01
1.449999999999999900e-01
1.449999999999999900e-01
1.239999999999999991e-01
1.239999999999999991e-01
1.239999999999999991e-01
1.039999999999999952e-01
1.239999999999999991e-01
1.449999999999999900e-01
2.069999999999999896e-01
4.560000000000000164e-01
1.449999999999999900e-01
1.660000000000000087e-01
1.859999999999999987e-01
1.449999999999999900e-01
1.039999999999999952e-01
1.039999999999999952e-01
1.239999999999999991e-01
1.239999999999999991e-01
1.239999999999999991e-01
1.449999999999999900e-01
1.239999999999999991e-01
1.660000000000000087e-01
1.449999999999999900e-01
1.449999999999999900e-01
3.519999999999999796e-01
1.660000000000000087e-01
1.449999999999999900e-01
1.449999999999999900e-01
1.660000000000000087e-01
1.239999999999999991e-01
1.449999999999999900e-01
8.300000000000000433e-02
1.449999999999999900e-01
1.449999999999999900e-01
1.449999999999999900e-01
1.239999999999999991e-01
8.300000000000000433e-02
1.660000000000000087e-01
2.069999999999999896e-01
3.109999999999999987e-01
2.899999999999999800e-01
8.300000000000000433e-02
1.449999999999999900e-01
1.239999999999999991e-01
1.859999999999999987e-01
1.660000000000000087e-01
1.239999999999999991e-01
1.039999999999999952e-01
2.069999999999999896e-01
1.239999999999999991e-01
1.660000000000000087e-01
1.239999999999999991e-01
1.660000000000000087e-01
2.899999999999999800e-01
2.690000000000000169e-01
1.449999999999999900e-01
1.239999999999999991e-01
1.660000000000000087e-01
1.239999999999999991e-01
1.449999999999999900e-01
1.660000000000000087e-01
1.039999999999999952e-01
1.660000000000000087e-01
1.039999999999999952e-01
1.239999999999999991e-01
1.660000000000000087e-01
2.899999999999999800e-01
2.489999999999999991e-01
1.859999999999999987e-01
1.239999999999999991e-01
1.239999999999999991e-01
1.239999999999999991e-01
1.660000000000000087e-01
1.039999999999999952e-01
1.660000000000000087e-01
1.449999999999999900e-01
1.660000000000000087e-01
1.449999999999999900e-01
1.660000000000000087e-01
3.310000000000000164e-01
1.660000000000000087e-01
1.660000000000000087e-01
1.660000000000000087e-01
2.280000000000000082e-01
1.449999999999999900e-01
1.239999999999999991e-01
1.039999999999999952e-01
1.449999999999999900e-01
1.449999999999999900e-01
1.239999999999999991e-01
1.239999999999999991e-01
2.069999999999999896e-01
3.729999999999999982e-01
1.660000000000000087e-01
1.660000000000000087e-01
1.449999999999999900e-01
1.039999999999999952e-01
1.859999999999999987e-01
1.449999999999999900e-01
1.660000000000000087e-01
1.039999999999999952e-01
1.449999999999999900e-01
1.449999999999999900e-01
1.239999999999999991e-01
1.449999999999999900e-01
1.239999999999999991e-01
3.519999999999999796e-01
2.489999999999999991e-01
1.449999999999999900e-01
1.239999999999999991e-01
1.239999999999999991e-01
8.300000000000000433e-02
1.859999999999999987e-01
1.660000000000000087e-01
1.239999999999999991e-01
1.449999999999999900e-01
1.449999999999999900e-01
1.449999999999999900e-01
1.239999999999999991e-01
1.660000000000000087e-01
1.449999999999999900e-01
1.859999999999999987e-01
4.560000000000000164e-01
1.660000000000000087e-01
1.660000000000000087e-01
1.660000000000000087e-01
1.660000000000000087e-01
1.449999999999999900e-01
1.239999999999999991e-01
1.239999999999999991e-01
1.660000000000000087e-01
1.660000000000000087e-01
1.660000000000000087e-01
1.660000000000000087e-01
1.449999999999999900e-01
2.069999999999999896e-01
2.069999999999999896e-01
1.660000000000000087e-01
4.969999999999999973e-01
1.859999999999999987e-01
1.449999999999999900e-01
1.660000000000000087e-01
1.449999999999999900e-01
1.660000000000000087e-01
1.239999999999999991e-01
1.239999999999999991e-01
1.449999999999999900e-01
1.239999999999999991e-01
2.069999999999999896e-01
1.039999999999999952e-01
1.859999999999999987e-01
1.660000000000000087e-01
1.660000000000000087e-01
1.859999999999999987e-01
4.349999999999999978e-01
1.449999999999999900e-01
2.069999999999999896e-01
1.239999999999999991e-01
1.239999999999999991e-01
1.239999999999999991e-01
1.039999999999999952e-01
1.039999999999999952e-01
1.039999999999999952e-01
1.039999999999999952e-01
3.109999999999999987e-01
1.859999999999999987e-01
1.449999999999999900e-01
1.660000000000000087e-01
1.449999999999999900e-01
3.310000000000000164e-01
2.899999999999999800e-01
1.449999999999999900e-01
1.239999999999999991e-01
1.039999999999999952e-01
1.449999999999999900e-01
1.449999999999999900e-01
1.039999999999999952e-01
1.239999999999999991e-01
1.449999999999999900e-01
1.449999999999999900e-01
2.069999999999999896e-01
1.449999999999999900e-01
1.239999999999999991e-01
2.280000000000000082e-01
2.899999999999999800e-01
1.239999999999999991e-01
1.239999999999999991e-01
1.660000000000000087e-01
1.039999999999999952e-01
1.239999999999999991e-01
1.449999999999999900e-01
1.660000000000000087e-01
1.239999999999999991e-01
1.239999999999999991e-01
1.239999999999999991e-01
1.039999999999999952e-01
3.109999999999999987e-01
3.729999999999999982e-01
2.069999999999999896e-01
1.449999999999999900e-01
1.449999999999999900e-01
1.660000000000000087e-01
1.449999999999999900e-01
1.660000000000000087e-01
1.449999999999999900e-01
2.069999999999999896e-01
1.449999999999999900e-01
1.239999999999999991e-01
1.239999999999999991e-01
3.310000000000000164e-01
3.729999999999999982e-01
1.239999999999999991e-01
1.660000000000000087e-01
1.239999999999999991e-01
1.449999999999999900e-01
1.660000000000000087e-01
1.239999999999999991e-01
1.449999999999999900e-01
1.449999999999999900e-01
1.449999999999999900e-01
1.859999999999999987e-01
1.449999999999999900e-01
1.449999999999999900e-01
4.139999999999999791e-01
1.239999999999999991e-01
1.239999999999999991e-01
1.239999999999999991e-01
2.069999999999999896e-01
1.859999999999999987e-01
1.859999999999999987e-01
1.239999999999999991e-01
1.239999999999999991e-01
1.239999999999999991e-01
1.449999999999999900e-01
1.660000000000000087e-01
1.039999999999999952e-01
1.239999999999999991e-01
1.859999999999999987e-01
4.349999999999999978e-01
2.489999999999999991e-01
1.239999999999999991e-01
1.239999999999999991e-01
8.300000000000000433e-02
1.039999999999999952e-01
1.239999999999999991e-01
1.660000000000000087e-01
1.039999999999999952e-01
1.239999999999999991e-01
1.660000000000000087e-01
2.069999999999999896e-01
1.039999999999999952e-01
1.239999999999999991e-01
1.859999999999999987e-01
2.899999999999999800e-01
2.899999999999999800e-01
1.660000000000000087e-01
1.239999999999999991e-01
1.660000000000000087e-01
1.239999999999999991e-01
1.859999999999999987e-01
1.660000000000000087e-01
1.449999999999999900e-01
2.069999999999999896e-01
1.239999999999999991e-01
8.300000000000000433e-02
1.239999999999999991e-01
1.859999999999999987e-01
1.239999999999999991e-01
1.239999999999999991e-01
1.449999999999999900e-01
4.349999999999999978e-01
1.239999999999999991e-01
1.239999999999999991e-01
1.039999999999999952e-01
1.449999999999999900e-01
1.859999999999999987e-01
1.449999999999999900e-01
2.280000000000000082e-01
1.449999999999999900e-01
1.660000000000000087e-01
1.039999999999999952e-01
1.239999999999999991e-01
1.039999999999999952e-01
1.239999999999999991e-01
1.449999999999999900e-01
1.660000000000000087e-01
1.859999999999999987e-01
3.940000000000000169e-01
1.660000000000000087e-01
1.449999999999999900e-01
2.280000000000000082e-01
1.660000000000000087e-01
1.660000000000000087e-01
1.449999999999999900e-01
1.239999999999999991e-01
1.449999999999999900e-01
1.239999999999999991e-01
1.660000000000000087e-01
1.660000000000000087e-01
1.449999999999999900e-01
1.039999999999999952e-01
1.660000000000000087e-01
2.280000000000000082e-01
2.899999999999999800e-01
1.859999999999999987e-01
1.449999999999999900e-01
1.239999999999999991e-01
1.039999999999999952e-01
1.859999999999999987e-01
1.039999999999999952e-01
1.449999999999999900e-01
1.660000000000000087e-01
1.239999999999999991e-01
1.660000000000000087e-01
1.660000000000000087e-01
1.449999999999999900e-01
1.660000000000000087e-01
4.349999999999999978e-01
1.660000000000000087e-01
1.660000000000000087e-01
1.449999999999999900e-01
1.449999999999999900e-01
1.660000000000000087e-01
1.239999999999999991e-01
1.239999999999999991e-01
8.300000000000000433e-02
1.239999999999999991e-01
1.449999999999999900e-01
1.660000000000000087e-01
1.039999999999999952e-01
1.239999999999999991e-01
3.310000000000000164e-01
2.069999999999999896e-01
1.039999999999999952e-01
1.239999999999999991e-01
1.859999999999999987e-01
1.449999999999999900e-01
1.239999999999999991e-01
1.660000000000000087e-01
1.449999999999999900e-01
1.239999999999999991e-01
1.039999999999999952e-01
1.660000000000000087e-01
1.039999999999999952e-01
1.449999999999999900e-01
4.139999999999999791e-01
1.449999999999999900e-01
1.239999999999999991e-01
1.660000000000000087e-01
1.449999999999999900e-01
1.449999999999999900e-01
1.239999999999999991e-01
1.859999999999999987e-01
1.449999999999999900e-01
1.660000000000000087e-01
2.069999999999999896e-01
1.449999999999999900e-01
1.239999999999999991e-01
1.660000000000000087e-01
1.449999999999999900e-01
4.139999999999999791e-01
2.690000000000000169e-01
1.660000000000000087e-01
1.449999999999999900e-01
1.449999999999999900e-01
1.239999999999999991e-01
1.239999999999999991e-01
1.449999999999999900e-01
1.239999999999999991e-01
1.449999999999999900e-01
1.039999999999999952e-01
1.239999999999999991e-01
1.859999999999999987e-01
1.239999999999999991e-01
1.660000000000000087e-01
2.069999999999999896e-01
4.139999999999999791e-01
3.940000000000000169e-01
1.239999999999999991e-01
1.039999999999999952e-01
1.660000000000000087e-01
1.239999999999999991e-01
1.859999999999999987e-01
1.239999999999999991e-01
1.039999999999999952e-01
1.239999999999999991e-01
8.300000000000000433e-02
1.449999999999999900e-01
1.239999999999999991e-01
1.859999999999999987e-01
1.449999999999999900e-01
2.069999999999999896e-01
3.940000000000000169e-01
2.280000000000000082e-01
1.859999999999999987e-01
2.069999999999999896e-01
2.069999999999999896e-01
1.239999999999999991e-01
1.449999999999999900e-01
1.859999999999999987e-01
1.039999999999999952e-01
1.239999999999999991e-01
1.660000000000000087e-01
1.239999999999999991e-01
1.239999999999999991e-01
1.660000000000000087e-01
1.239999999999999991e-01
1.660000000000000087e-01
3.940000000000000169e-01
2.280000000000000082e-01
1.449999999999999900e-01
8.300000000000000433e-02
1.039999999999999952e-01
1.660000000000000087e-01
1.859999999999999987e-01
1.449999999999999900e-01
2.069999999999999896e-01
1.449999999999999900e-01
1.239999999999999991e-01
1.449999999999999900e-01
1.449999999999999900e-01
1.039999999999999952e-01
2.280000000000000082e-01
3.519999999999999796e-01
1.660000000000000087e-01
1.660000000000000087e-01
1.449999999999999900e-01
1.039999999999999952e-01
1.859999999999999987e-01
1.660000000000000087e-01
1.859999999999999987e-01
1.449999999999999900e-01
1.039999999999999952e-01
1.660000000000000087e-01
1.239999999999999991e-01
2.899999999999999800e-01
3.310000000000000164e-01
1.859999999999999987e-01
1.660000000000000087e-01
8.300000000000000433e-02
1.859999999999999987e-01
1.660000000000000087e-01
1.859999999999999987e-01
1.859999999999999987e-01
1.449999999999999900e-01
1.239999999999999991e-01
1.449999999999999900e-01
1.449999999999999900e-01
3.109999999999999987e-01
2.280000000000000082e-01
1.449999999999999900e-01
1.449999999999999900e-01
2.069999999999999896e-01
1.239999999999999991e-01
1.660000000000000087e-01
1.449999999999999900e-01
1.660000000000000087e-01
1.449999999999999900e-01
1.239999999999999991e-01
1.449999999999999900e-01
1.039999999999999952e-01
3.109999999999999987e-01
3.109999999999999987e-01
1.239999999999999991e-01
1.239999999999999991e-01
1.449999999999999900e-01
1.239999999999999991e-01
1.449999999999999900e-01
1.660000000000000087e-01
1.239999999999999991e-01
1.239999999999999991e-01
1.449999999999999900e-01
1.449999999999999900e-01
1.449999999999999900e-01
1.039999999999999952e-01
3.109999999999999987e-01
3.310000000000000164e-01
1.660000000000000087e-01
1.660000000000000087e-01
1.449999999999999900e-01
1.449999999999999900e-01
8.300000000000000433e-02
1.449999999999999900e-01
1.449999999999999900e-01
1.449999999999999900e-01
1.239999999999999991e-01
1.660000000000000087e-01
1.660000000000000087e-01
2.069999999999999896e-01
1.449999999999999900e-01
1.239999999999999991e-01
4.769999999999999796e-01
2.069999999999999896e-01
1.239999999999999991e-01
1.660000000000000087e-01
1.449999999999999900e-01
1.039999999999999952e-01
1.449999999999999900e-01
1.039999999999999952e-01
1.039999999999999952e-01
1.239999999999999991e-01
1.239999999999999991e-01
1.239999999999999991e-01
1.660000000000000087e-01
1.239999999999999991e-01
1.449999999999999900e-01
2.069999999999999896e-01
4.969999999999999973e-01
1.859999999999999987e-01
1.239999999999999991e-01
1.449999999999999900e-01
1.859999999999999987e-01
1.449999999999999900e-01
1.660000000000000087e-01
1.660000000000000087e-01
1.449999999999999900e-01
1.660000000000000087e-01
1.449999999999999900e-01
1.039999999999999952e-01
1.660000000000000087e-01
1.449999999999999900e-01
1.239999999999999991e-01
4.560000000000000164e-01
1.660000000000000087e-01
1.660000000000000087e-01
1.449999999999999900e-01
1.660000000000000087e-01
1.039999999999999952e-01
1.859999999999999987e-01
1.660000000000000087e-01
1.660000000000000087e-01
1.239999999999999991e-01
1.449999999999999900e-01
1.449999999999999900e-01
1.449999999999999900e-01
1.039999999999999952e-01
1.039999999999999952e-01
3.729999999999999982e-01
1.660000000000000087e-01
1.239999999999999991e-01
1.239999999999999991e-01
1.039999999999999952e-01
8.300000000000000433e-02
1.239999999999999991e-01
1.859999999999999987e-01
1.660000000000000087e-01
1.859999999999999987e-01
1.859999999999999987e-01
1.449999999999999900e-01
1.449999999999999900e-01
3.729999999999999982e-01
2.069999999999999896e-01
1.449999999999999900e-01
1.449999999999999900e-01
1.449999999999999900e-01
1.449999999999999900e-01
1.239999999999999991e-01
1.449999999999999900e-01
1.660000000000000087e-01
1.239999999999999991e-01
1.039999999999999952e-01
1.239999999999999991e-01
1.859999999999999987e-01
3.109999999999999987e-01
1.859999999999999987e-01
1.449999999999999900e-01
1.039999999999999952e-01
1.239999999999999991e-01
1.239999999999999991e-01
1.239999999999999991e-01
1.239999999999999991e-01
1.449999999999999900e-01
1.039999999999999952e-01
1.449999999999999900e-01
1.660000000000000087e-01
4.349999999999999978e-01
1.660000000000000087e-01
1.239999999999999991e-01
1.039999999999999952e-01
1.449999999999999900e-01
1.449999999999999900e-01
1.660000000000000087e-01
1.449999999999999900e-01
1.449999999999999900e-01
2.280000000000000082e-01
1.239999999999999991e-01
1.039999999999999952e-01
3.109999999999999987e-01
3.940000000000000169e-01
1.239999999999999991e-01
1.660000000000000087e-01
1.239999999999999991e-01
1.859999999999999987e-01
1.449999999999999900e-01
1.239999999999999991e-01
1.660000000000000087e-01
1.239999999999999991e-01
1.239999999999999991e-01
2.069999999999999896e-01
1.449999999999999900e-01
1.039999999999999952e-01
1.039999999999999952e-01
6.009999999999999787e-01
1.660000000000000087e-01
1.449999999999999900e-01
1.039999999999999952e-01
1.239999999999999991e-01
1.039999999999999952e-01
1.660000000000000087e-01
1.660000000000000087e-01
1.449999999999999900e-01
1.449999999999999900e-01
1.239999999999999991e-01
1.239999999999999991e-01
1.859999999999999987e-01
2.069999999999999896e-01
1.660000000000000087e-01
2.280000000000000082e-01
4.560000000000000164e-01
1.660000000000000087e-01
1.449999999999999900e-01
1.660000000000000087e-01
1.239999999999999991e-01
1.449999999999999900e-01
1.449999999999999900e-01
1.239999999999999991e-01
1.449999999999999900e-01
1.449999999999999900e-01
1.239999999999999991e-01
1.449999999999999900e-01
1.449999999999999900e-01
1.449999999999999900e-01
2.899999999999999800e-01
3.940000000000000169e-01
1.660000000000000087e-01
1.239999999999999991e-01
1.239999999999999991e-01
1.239999999999999991e-01
1.239999999999999991e-01
1.239999999999999991e-01
1.859999999999999987e-01
1.660000000000000087e-01
1.449999999999999900e-01
1.239999999999999991e-01
2.069999999999999896e-01
1.449999999999999900e-01
1.660000000000000087e-01
3.729999999999999982e-01
1.449999999999999900e-01
1.449999999999999900e-01
1.660000000000000087e-01
1.660000000000000087e-01
1.449999999999999900e-01
1.449999999999999900e-01
1.449999999999999900e-01
1.039999999999999952e-01
1.239999999999999991e-01
1.660000000000000087e-01
1.039999999999999952e-01
3.109999999999999987e-01
2.899999999999999800e-01
1.660000000000000087e-01
1.660000000000000087e-01
1.449999999999999900e-01
1.660000000000000087e-01
1.239999999999999991e-01
1.449999999999999900e-01
1.449999999999999900e-01
1.660000000000000087e-01
1.239999999999999991e-01
8.300000000000000433e-02
3.310000000000000164e-01
3.109999999999999987e-01
1.859999999999999987e-01
1.239999999999999991e-01
1.239999999999999991e-01
1.239999999999999991e-01
1.039999999999999952e-01
1.449999999999999900e-01
1.239999999999999991e-01
8.300000000000000433e-02
1.039999999999999952e-01
1.859999999999999987e-01
2.489999999999999991e-01
2.899999999999999800e-01
1.449999999999999900e-01
1.239999999999999991e-01
1.449999999999999900e-01
1.660000000000000087e-01
1.859999999999999987e-01
1.449999999999999900e-01
1.449999999999999900e-01
2.069999999999999896e-01
1.859999999999999987e-01
1.859999999999999987e-01
2.280000000000000082e-01
4.349999999999999978e-01
1.859999999999999987e-01
1.859999999999999987e-01
1.859999999999999987e-01
1.660000000000000087e-01
1.660000000000000087e-01
1.239999999999999991e-01
1.660000000000000087e-01
1.239999999999999991e-01
2.069999999999999896e-01
1.239999999999999991e-01
1.449999999999999900e-01
1.239999999999999991e-01
3.729999999999999982e-01
2.069999999999999896e-01
1.039999999999999952e-01
1.660000000000000087e-01
1.859999999999999987e-01
1.239999999999999991e-01
1.239999999999999991e-01
1.449999999999999900e-01
1.239999999999999991e-01
1.660000000000000087e-01
1.039999999999999952e-01
1.449999999999999900e-01
2.280000000000000082e-01
1.239999999999999991e-01
1.449999999999999900e-01
5.180000000000000160e-01
1.859999999999999987e-01
1.039999999999999952e-01
1.449999999999999900e-01
1.660000000000000087e-01
2.069999999999999896e-01
1.239999999999999991e-01
1.039999999999999952e-01
1.660000000000000087e-01
1.449999999999999900e-01
8.300000000000000433e-02
1.039999999999999952e-01
1.239999999999999991e-01
8.300000000000000433e-02
1.449999999999999900e-01
2.280000000000000082e-01
5.390000000000000346e-01
1.449999999999999900e-01
1.449999999999999900e-01
2.280000000000000082e-01
1.660000000000000087e-01
1.239999999999999991e-01
1.449999999999999900e-01
1.039999999999999952e-01
1.449999999999999900e-01
1.859999999999999987e-01
1.660000000000000087e-01
1.859999999999999987e-01
1.859999999999999987e-01
1.239999999999999991e-01
1.039999999999999952e-01
4.139999999999999791e-01
1.239999999999999991e-01
2.069999999999999896e-01
1.449999999999999900e-01
1.449999999999999900e-01
1.660000000000000087e-01
1.239999999999999991e-01
1.660000000000000087e-01
8.300000000000000433e-02
1.660000000000000087e-01
1.039999999999999952e-01
1.859999999999999987e-01
1.859999999999999987e-01
3.729999999999999982e-01
3.109999999999999987e-01
1.859999999999999987e-01
1.239999999999999991e-01
1.449999999999999900e-01
1.660000000000000087e-01
1.449999999999999900e-01
1.449999999999999900e-01
1.239999999999999991e-01
1.660000000000000087e-01
1.660000000000000087e-01
1.449999999999999900e-01
1.449999999999999900e-01
3.310000000000000164e-01
2.899999999999999800e-01
1.239999999999999991e-01
1.660000000000000087e-01
1.039999999999999952e-01
1.859999999999999987e-01
1.449999999999999900e-01
2.690000000000000169e-01
1.039999999999999952e-01
1.449999999999999900e-01
1.039999999999999952e-01
1.039999999999999952e-01
2.489999999999999991e-01
3.519999999999999796e-01
1.660000000000000087e-01
8.300000000000000433e-02
1.039999999999999952e-01
1.449999999999999900e-01
1.660000000000000087e-01
1.859999999999999987e-01
1.039999999999999952e-01
1.039999999999999952e-01
1.239999999999999991e-01
1.660000000000000087e-01
1.660000000000000087e-01
1.660000000000000087e-01
3.729999999999999982e-01
1.660000000000000087e-01
1.449999999999999900e-01
1.039999999999999952e-01
1.660000000000000087e-01
1.239999999999999991e-01
1.039999999999999952e-01
1.039999999999999952e-01
1.239999999999999991e-01
1.239999999999999991e-01
1.239999999999999991e-01
1.039999999999999952e-01
1.039999999999999952e-01
2.069999999999999896e-01
1.859999999999999987e-01
4.560000000000000164e-01
1.660000000000000087e-01
1.449999999999999900e-01
1.449999999999999900e-01
1.449999999999999900e-01
1.239999999999999991e-01
1.859999999999999987e-01
1.239999999999999991e-01
1.239999999999999991e-01
1.660000000000000087e-01
1.449999999999999900e-01
1.239999999999999991e-01
1.449999999999999900e-01
1.039999999999999952e-01
1.039999999999999952e-01
4.769999999999999796e-01
2.280000000000000082e-01
1.660000000000000087e-01
1.039999999999999952e-01
2.069999999999999896e-01
1.449999999999999900e-01
1.449999999999999900e-01
1.039999999999999952e-01
1.239999999999999991e-01
1.449999999999999900e-01
1.859999999999999987e-01
2.069999999999999896e-01
1.660000000000000087e-01
1.039999999999999952e-01
3.109999999999999987e-01
4.560000000000000164e-01
1.660000000000000087e-01
1.239999999999999991e-01
1.660000000000000087e-01
1.449999999999999900e-01
1.239999999999999991e-01
8.300000000000000433e-02
1.039999999999999952e-01
1.449999999999999900e-01
1.239999999999999991e-01
1.239999999999999991e-01
1.449999999999999900e-01
3.310000000000000164e-01
2.690000000000000169e-01
1.039999999999999952e-01
1.239999999999999991e-01
1.449999999999999900e-01
1.660000000000000087e-01
1.039999999999999952e-01
1.660000000000000087e-01
1.449999999999999900e-01
1.449999999999999900e-01
1.039999999999999952e-01
1.239999999999999991e-01
2.899999999999999800e-01
4.139999999999999791e-01
1.449999999999999900e-01
1.660000000000000087e-01
1.239999999999999991e-01
1.239999999999999991e-01
1.449999999999999900e-01
1.239999999999999991e-01
1.239999999999999991e-01
1.239999999999999991e-01
1.239999999999999991e-01
1.239999999999999991e-01
1.239999999999999991e-01
2.489999999999999991e-01
4.349999999999999978e-01
1.449999999999999900e-01
1.449999999999999900e-01
1.660000000000000087e-01
1.449999999999999900e-01
1.449999999999999900e-01
1.449999999999999900e-01
1.239999999999999991e-01
1.660000000000000087e-01
1.239999999999999991e-01
1.239999999999999991e-01
1.239999999999999991e-01
1.660000000000000087e-01
1.449999999999999900e-01
1.660000000000000087e-01
4.769999999999999796e-01
1.660000000000000087e-01
1.449999999999999900e-01
2.069999999999999896e-01
1.449999999999999900e-01
1.449999999999999900e-01
1.039999999999999952e-01
1.449999999999999900e-01
1.449999999999999900e-01
2.069999999999999896e-01
1.239999999999999991e-01
1.239999999999999991e-01
1.239999999999999991e-01
1.039999999999999952e-01
1.859999999999999987e-01
4.969999999999999973e-01
1.239999999999999991e-01
1.449999999999999900e-01
1.239999999999999991e-01
1.859999999999999987e-01
1.039999999999999952e-01
1.859999999999999987e-01
1.449999999999999900e-01
1.239999999999999991e-01
1.859999999999999987e-01
1.239999999999999991e-01
1.239999999999999991e-01
1.239999999999999991e-01
2.069999999999999896e-01
4.560000000000000164e-01
1.660000000000000087e-01
1.239999999999999991e-01
1.039999999999999952e-01
1.449999999999999900e-01
1.449999999999999900e-01
