3.519999999999999796e-01
4.139999999999999791e-01
1.284999999999999920e+00
6.420000000000000151e-01
6.219999999999999973e-01
2.154999999999999805e+00
1.760999999999999899e+00
2.196000000000000174e+00
3.149000000000000021e+00
3.065999999999999837e+00
2.072000000000000064e+00
2.464999999999999858e+00
3.419000000000000039e+00
3.169999999999999929e+00
1.616000000000000103e+00
1.014999999999999902e+00
1.491999999999999993e+00
2.133999999999999897e+00
2.507000000000000117e+00
3.024999999999999911e+00
1.181000000000000050e+00
2.858999999999999986e+00
7.249999999999999778e-01
1.885000000000000009e+00
1.905999999999999917e+00
1.947999999999999954e+00
2.258000000000000007e+00
2.630999999999999783e+00
2.920999999999999819e+00
1.782000000000000028e+00
2.464999999999999858e+00
2.383000000000000007e+00
2.217000000000000082e+00
2.029999999999999805e+00
3.128000000000000114e+00
1.905999999999999917e+00
2.403000000000000025e+00
4.267999999999999794e+00
4.330000000000000071e+00
2.609999999999999876e+00
2.589999999999999858e+00
2.299999999999999822e+00
1.719999999999999973e+00
2.507000000000000117e+00
2.403000000000000025e+00
2.734999999999999876e+00
2.464999999999999858e+00
2.319999999999999840e+00
2.589999999999999858e+00
1.947999999999999954e+00
2.072000000000000064e+00
2.423999999999999932e+00
2.528000000000000025e+00
1.844000000000000083e+00
2.464999999999999858e+00
2.444999999999999840e+00
1.885000000000000009e+00
1.947999999999999954e+00
1.719999999999999973e+00
2.942000000000000171e+00
1.802000000000000046e+00
3.128000000000000114e+00
1.782000000000000028e+00
1.409000000000000030e+00
2.258000000000000007e+00
2.589999999999999858e+00
3.935999999999999943e+00
2.029999999999999805e+00
1.905999999999999917e+00
2.009999999999999787e+00
1.326000000000000068e+00
2.403000000000000025e+00
3.543000000000000149e+00
2.734999999999999876e+00
1.885000000000000009e+00
2.568999999999999950e+00
2.734999999999999876e+00
2.196000000000000174e+00
1.864999999999999991e+00
2.858999999999999986e+00
1.760999999999999899e+00
1.574999999999999956e+00
2.299999999999999822e+00
1.449999999999999956e+00
1.471000000000000085e+00
1.594999999999999973e+00
1.637000000000000011e+00
1.616000000000000103e+00
6.840000000000000524e-01
1.056999999999999940e+00
9.739999999999999769e-01
1.657000000000000028e+00
5.390000000000000346e-01
5.799999999999999600e-01
5.590000000000000524e-01
4.560000000000000164e-01
4.139999999999999791e-01
2.489999999999999991e-01
5.799999999999999600e-01
5.180000000000000160e-01
3.729999999999999982e-01
6.840000000000000524e-01
8.489999999999999769e-01
4.349999999999999978e-01
6.630000000000000338e-01
6.840000000000000524e-01
8.489999999999999769e-01
7.459999999999999964e-01
7.039999999999999591e-01
7.249999999999999778e-01
1.036000000000000032e+00
1.036000000000000032e+00
5.590000000000000524e-01
9.739999999999999769e-01
5.799999999999999600e-01
5.590000000000000524e-01
3.109999999999999987e-01
1.366999999999999993e+00
1.118999999999999995e+00
9.120000000000000329e-01
6.630000000000000338e-01
7.249999999999999778e-01
7.249999999999999778e-01
1.076999999999999957e+00
1.076999999999999957e+00
1.076999999999999957e+00
9.739999999999999769e-01
2.072000000000000064e+00
7.670000000000000151e-01
8.080000000000000515e-01
6.630000000000000338e-01
9.120000000000000329e-01
1.989000000000000101e+00
6.420000000000000151e-01
9.939999999999999947e-01
1.346999999999999975e+00
1.574999999999999956e+00
1.366999999999999993e+00
2.838000000000000078e+00
1.947999999999999954e+00
1.264000000000000012e+00
1.512000000000000011e+00
2.568999999999999950e+00
1.885000000000000009e+00
1.802000000000000046e+00
2.278999999999999915e+00
1.844000000000000083e+00
2.092999999999999972e+00
2.548000000000000043e+00
2.609999999999999876e+00
1.989000000000000101e+00
2.072000000000000064e+00
2.133999999999999897e+00
2.009999999999999787e+00
1.739999999999999991e+00
2.051000000000000156e+00
2.797000000000000153e+00
1.719999999999999973e+00
1.760999999999999899e+00
2.174999999999999822e+00
1.864999999999999991e+00
2.174999999999999822e+00
1.657000000000000028e+00
2.423999999999999932e+00
1.927000000000000046e+00
1.927000000000000046e+00
1.366999999999999993e+00
2.174999999999999822e+00
1.409000000000000030e+00
1.387999999999999901e+00
1.637000000000000011e+00
2.174999999999999822e+00
1.739999999999999991e+00
1.967999999999999972e+00
1.885000000000000009e+00
3.419000000000000039e+00
1.760999999999999899e+00
1.967999999999999972e+00
2.112999999999999989e+00
2.423999999999999932e+00
2.362000000000000099e+00
3.604999999999999982e+00
4.267999999999999794e+00
2.879999999999999893e+00
2.154999999999999805e+00
2.072000000000000064e+00
3.149000000000000021e+00
3.210999999999999854e+00
2.237999999999999989e+00
2.568999999999999950e+00
2.444999999999999840e+00
2.486000000000000210e+00
2.609999999999999876e+00
2.092999999999999972e+00
2.609999999999999876e+00
1.739999999999999991e+00
2.217000000000000082e+00
2.528000000000000025e+00
3.087000000000000188e+00
3.584000000000000075e+00
2.963000000000000078e+00
2.713999999999999968e+00
2.092999999999999972e+00
3.128000000000000114e+00
2.029999999999999805e+00
3.024999999999999911e+00
2.403000000000000025e+00
3.210999999999999854e+00
2.713999999999999968e+00
2.734999999999999876e+00
2.507000000000000117e+00
2.630999999999999783e+00
2.362000000000000099e+00
3.398000000000000131e+00
2.818000000000000060e+00
3.169999999999999929e+00
3.543000000000000149e+00
3.419000000000000039e+00
2.879999999999999893e+00
3.210999999999999854e+00
3.045999999999999819e+00
3.314999999999999947e+00
2.362000000000000099e+00
3.709000000000000075e+00
4.371999999999999886e+00
3.999000000000000110e+00
2.755999999999999783e+00
3.999000000000000110e+00
2.879999999999999893e+00
2.879999999999999893e+00
3.915999999999999925e+00
2.652000000000000135e+00
3.709000000000000075e+00
3.895000000000000018e+00
3.149000000000000021e+00
4.163999999999999702e+00
3.750000000000000000e+00
5.738999999999999879e+00
5.490000000000000213e+00
3.645999999999999908e+00
4.703000000000000291e+00
2.920999999999999819e+00
3.210999999999999854e+00
5.780000000000000249e+00
3.956999999999999851e+00
3.004000000000000004e+00
4.184999999999999609e+00
5.014000000000000234e+00
4.434000000000000163e+00
3.956999999999999851e+00
6.525999999999999801e+00
5.365999999999999659e+00
5.469999999999999751e+00
5.945999999999999730e+00
1.228599999999999959e+01
8.101000000000000867e+00
9.778999999999999915e+00
8.369999999999999218e+00
7.189000000000000057e+00
9.986000000000000654e+00
7.894000000000000128e+00
1.156099999999999994e+01
8.598000000000000753e+00
6.546999999999999709e+00
6.836999999999999744e+00
7.934999999999999609e+00
7.706999999999999851e+00
7.126999999999999780e+00
7.022999999999999687e+00
8.515000000000000568e+00
6.485000000000000320e+00
6.008000000000000007e+00
5.448999999999999844e+00
6.318999999999999950e+00
4.123000000000000220e+00
6.506000000000000227e+00
4.330000000000000071e+00
4.060999999999999943e+00
2.568999999999999950e+00
3.956999999999999851e+00
2.755999999999999783e+00
3.190999999999999837e+00
3.398000000000000131e+00
2.858999999999999986e+00
2.589999999999999858e+00
3.128000000000000114e+00
3.128000000000000114e+00
3.065999999999999837e+00
3.232000000000000206e+00
2.217000000000000082e+00
3.376999999999999780e+00
4.019000000000000128e+00
3.978000000000000203e+00
4.743999999999999773e+00
3.314999999999999947e+00
3.688000000000000167e+00
3.688000000000000167e+00
3.065999999999999837e+00
3.087000000000000188e+00
4.474999999999999645e+00
3.978000000000000203e+00
2.154999999999999805e+00
3.999000000000000110e+00
2.278999999999999915e+00
3.024999999999999911e+00
3.419000000000000039e+00
3.190999999999999837e+00
3.978000000000000203e+00
2.029999999999999805e+00
3.419000000000000039e+00
2.838000000000000078e+00
2.630999999999999783e+00
2.112999999999999989e+00
3.253000000000000114e+00
2.900999999999999801e+00
3.521999999999999797e+00
2.383000000000000007e+00
2.693000000000000060e+00
2.879999999999999893e+00
2.609999999999999876e+00
3.273000000000000131e+00
2.319999999999999840e+00
1.699000000000000066e+00
3.190999999999999837e+00
2.589999999999999858e+00
1.594999999999999973e+00
2.029999999999999805e+00
2.029999999999999805e+00
3.625999999999999890e+00
2.755999999999999783e+00
2.444999999999999840e+00
2.217000000000000082e+00
3.149000000000000021e+00
2.693000000000000060e+00
3.376999999999999780e+00
2.589999999999999858e+00
3.956999999999999851e+00
5.490000000000000213e+00
4.144000000000000128e+00
3.314999999999999947e+00
4.661999999999999922e+00
2.319999999999999840e+00
2.755999999999999783e+00
3.169999999999999929e+00
2.775999999999999801e+00
1.905999999999999917e+00
3.024999999999999911e+00
1.657000000000000028e+00
1.181000000000000050e+00
2.299999999999999822e+00
1.885000000000000009e+00
1.822999999999999954e+00
3.459999999999999964e+00
3.190999999999999837e+00
2.879999999999999893e+00
2.838000000000000078e+00
3.355999999999999872e+00
2.009999999999999787e+00
2.383000000000000007e+00
2.983000000000000096e+00
2.009999999999999787e+00
4.288999999999999702e+00
1.181000000000000050e+00
3.108000000000000096e+00
1.822999999999999954e+00
4.599000000000000199e+00
2.154999999999999805e+00
2.713999999999999968e+00
3.210999999999999854e+00
5.221000000000000085e+00
2.278999999999999915e+00
3.750000000000000000e+00
3.500999999999999890e+00
3.294000000000000039e+00
3.999000000000000110e+00
3.398000000000000131e+00
2.818000000000000060e+00
1.429999999999999938e+00
5.116999999999999993e+00
2.734999999999999876e+00
2.630999999999999783e+00
2.920999999999999819e+00
5.035000000000000142e+00
1.699000000000000066e+00
2.217000000000000082e+00
1.905999999999999917e+00
2.838000000000000078e+00
2.630999999999999783e+00
2.755999999999999783e+00
1.616000000000000103e+00
2.299999999999999822e+00
1.802000000000000046e+00
3.024999999999999911e+00
3.376999999999999780e+00
2.693000000000000060e+00
4.496000000000000441e+00
3.108000000000000096e+00
2.092999999999999972e+00
2.237999999999999989e+00
1.221999999999999975e+00
1.989000000000000101e+00
2.217000000000000082e+00
1.387999999999999901e+00
3.688000000000000167e+00
2.775999999999999801e+00
8.910000000000000142e-01
1.304999999999999938e+00
1.947999999999999954e+00
2.775999999999999801e+00
1.594999999999999973e+00
1.429999999999999938e+00
2.920999999999999819e+00
2.299999999999999822e+00
1.076999999999999957e+00
1.760999999999999899e+00
6.009999999999999787e-01
1.014999999999999902e+00
1.139999999999999902e+00
1.201999999999999957e+00
1.201999999999999957e+00
1.076999999999999957e+00
1.782000000000000028e+00
1.284999999999999920e+00
7.039999999999999591e-01
5.390000000000000346e-01
8.289999999999999591e-01
1.264000000000000012e+00
1.284999999999999920e+00
1.304999999999999938e+00
1.532999999999999918e+00
7.870000000000000329e-01
1.056999999999999940e+00
1.036000000000000032e+00
1.159999999999999920e+00
9.120000000000000329e-01
1.201999999999999957e+00
8.080000000000000515e-01
6.630000000000000338e-01
1.139999999999999902e+00
7.249999999999999778e-01
9.120000000000000329e-01
1.076999999999999957e+00
8.289999999999999591e-01
8.489999999999999769e-01
1.118999999999999995e+00
1.264000000000000012e+00
1.304999999999999938e+00
1.036000000000000032e+00
1.098000000000000087e+00
9.320000000000000506e-01
7.249999999999999778e-01
6.630000000000000338e-01
9.529999999999999583e-01
9.529999999999999583e-01
1.139999999999999902e+00
2.092999999999999972e+00
1.346999999999999975e+00
8.910000000000000142e-01
2.217000000000000082e+00
8.289999999999999591e-01
9.939999999999999947e-01
5.799999999999999600e-01
6.420000000000000151e-01
6.009999999999999787e-01
7.870000000000000329e-01
1.201999999999999957e+00
7.039999999999999591e-01
5.390000000000000346e-01
9.120000000000000329e-01
5.390000000000000346e-01
3.729999999999999982e-01
6.009999999999999787e-01
7.870000000000000329e-01
8.910000000000000142e-01
5.390000000000000346e-01
6.630000000000000338e-01
7.039999999999999591e-01
9.939999999999999947e-01
2.464999999999999858e+00
2.879999999999999893e+00
1.098000000000000087e+00
4.206000000000000405e+00
1.429999999999999938e+00
1.885000000000000009e+00
2.444999999999999840e+00
1.056999999999999940e+00
1.181000000000000050e+00
1.014999999999999902e+00
9.120000000000000329e-01
1.056999999999999940e+00
7.249999999999999778e-01
6.009999999999999787e-01
7.670000000000000151e-01
9.939999999999999947e-01
7.039999999999999591e-01
6.630000000000000338e-01
7.459999999999999964e-01
7.870000000000000329e-01
6.219999999999999973e-01
6.840000000000000524e-01
8.699999999999999956e-01
7.459999999999999964e-01
7.670000000000000151e-01
5.799999999999999600e-01
6.840000000000000524e-01
4.139999999999999791e-01
3.109999999999999987e-01
4.139999999999999791e-01
5.180000000000000160e-01
7.870000000000000329e-01
3.729999999999999982e-01
6.840000000000000524e-01
6.009999999999999787e-01
4.139999999999999791e-01
6.420000000000000151e-01
6.630000000000000338e-01
8.489999999999999769e-01
4.139999999999999791e-01
6.630000000000000338e-01
9.120000000000000329e-01
8.489999999999999769e-01
7.870000000000000329e-01
6.840000000000000524e-01
5.180000000000000160e-01
6.219999999999999973e-01
5.180000000000000160e-01
7.670000000000000151e-01
5.799999999999999600e-01
4.560000000000000164e-01
3.729999999999999982e-01
6.420000000000000151e-01
1.864999999999999991e+00
1.201999999999999957e+00
5.799999999999999600e-01
1.554000000000000048e+00
8.080000000000000515e-01
1.014999999999999902e+00
7.459999999999999964e-01
5.180000000000000160e-01
8.289999999999999591e-01
1.036000000000000032e+00
2.009999999999999787e+00
1.760999999999999899e+00
6.009999999999999787e-01
9.529999999999999583e-01
2.092999999999999972e+00
1.947999999999999954e+00
1.139999999999999902e+00
1.574999999999999956e+00
1.719999999999999973e+00
2.341000000000000192e+00
1.864999999999999991e+00
1.699000000000000066e+00
1.657000000000000028e+00
3.398000000000000131e+00
2.900999999999999801e+00
1.885000000000000009e+00
2.237999999999999989e+00
3.564000000000000057e+00
2.112999999999999989e+00
1.967999999999999972e+00
2.838000000000000078e+00
2.775999999999999801e+00
1.885000000000000009e+00
2.879999999999999893e+00
1.346999999999999975e+00
3.500999999999999890e+00
3.149000000000000021e+00
2.652000000000000135e+00
3.521999999999999797e+00
1.554000000000000048e+00
1.159999999999999920e+00
2.879999999999999893e+00
3.065999999999999837e+00
7.977000000000000313e+00
2.423999999999999932e+00
2.112999999999999989e+00
6.840000000000000524e-01
1.864999999999999991e+00
1.927000000000000046e+00
1.947999999999999954e+00
2.444999999999999840e+00
8.183999999999999275e+00
8.910000000000000142e-01
1.243000000000000105e+00
1.118999999999999995e+00
6.420000000000000151e-01
1.471000000000000085e+00
9.120000000000000329e-01
2.154999999999999805e+00
6.219999999999999973e-01
1.284999999999999920e+00
8.910000000000000142e-01
1.346999999999999975e+00
5.180000000000000160e-01
9.529999999999999583e-01
5.799999999999999600e-01
1.927000000000000046e+00
2.838000000000000078e+00
2.858999999999999986e+00
5.390000000000000346e-01
1.181000000000000050e+00
1.221999999999999975e+00
8.910000000000000142e-01
5.180000000000000160e-01
7.039999999999999591e-01
7.459999999999999964e-01
1.221999999999999975e+00
9.939999999999999947e-01
1.076999999999999957e+00
1.201999999999999957e+00
2.009999999999999787e+00
5.390000000000000346e-01
9.120000000000000329e-01
1.159999999999999920e+00
1.304999999999999938e+00
1.864999999999999991e+00
1.159999999999999920e+00
1.264000000000000012e+00
8.910000000000000142e-01
1.387999999999999901e+00
1.304999999999999938e+00
1.657000000000000028e+00
1.326000000000000068e+00
1.429999999999999938e+00
1.118999999999999995e+00
8.289999999999999591e-01
7.459999999999999964e-01
3.729999999999999982e-01
9.529999999999999583e-01
8.699999999999999956e-01
7.670000000000000151e-01
5.799999999999999600e-01
1.221999999999999975e+00
6.009999999999999787e-01
1.159999999999999920e+00
7.870000000000000329e-01
9.120000000000000329e-01
1.056999999999999940e+00
7.249999999999999778e-01
1.056999999999999940e+00
8.699999999999999956e-01
7.670000000000000151e-01
7.249999999999999778e-01
4.349999999999999978e-01
7.249999999999999778e-01
9.120000000000000329e-01
8.080000000000000515e-01
7.039999999999999591e-01
1.264000000000000012e+00
9.120000000000000329e-01
1.512000000000000011e+00
7.459999999999999964e-01
9.739999999999999769e-01
1.304999999999999938e+00
2.258000000000000007e+00
7.870000000000000329e-01
6.420000000000000151e-01
9.120000000000000329e-01
6.630000000000000338e-01
6.420000000000000151e-01
1.118999999999999995e+00
8.489999999999999769e-01
1.118999999999999995e+00
9.939999999999999947e-01
8.489999999999999769e-01
1.056999999999999940e+00
9.739999999999999769e-01
1.014999999999999902e+00
1.264000000000000012e+00
1.304999999999999938e+00
9.739999999999999769e-01
6.219999999999999973e-01
6.840000000000000524e-01
1.056999999999999940e+00
1.056999999999999940e+00
9.320000000000000506e-01
8.289999999999999591e-01
1.098000000000000087e+00
9.320000000000000506e-01
1.346999999999999975e+00
1.346999999999999975e+00
1.076999999999999957e+00
8.699999999999999956e-01
7.870000000000000329e-01
7.670000000000000151e-01
1.844000000000000083e+00
1.677999999999999936e+00
7.459999999999999964e-01
7.670000000000000151e-01
7.039999999999999591e-01
7.459999999999999964e-01
6.219999999999999973e-01
1.159999999999999920e+00
8.699999999999999956e-01
1.014999999999999902e+00
5.590000000000000524e-01
1.491999999999999993e+00
8.489999999999999769e-01
7.459999999999999964e-01
6.219999999999999973e-01
7.039999999999999591e-01
9.739999999999999769e-01
6.840000000000000524e-01
9.320000000000000506e-01
1.471000000000000085e+00
7.459999999999999964e-01
6.420000000000000151e-01
6.630000000000000338e-01
6.219999999999999973e-01
6.840000000000000524e-01
6.630000000000000338e-01
6.219999999999999973e-01
7.039999999999999591e-01
5.799999999999999600e-01
6.840000000000000524e-01
5.180000000000000160e-01
8.699999999999999956e-01
5.590000000000000524e-01
5.180000000000000160e-01
6.009999999999999787e-01
5.590000000000000524e-01
8.910000000000000142e-01
8.289999999999999591e-01
1.118999999999999995e+00
6.630000000000000338e-01
7.670000000000000151e-01
6.840000000000000524e-01
7.870000000000000329e-01
8.289999999999999591e-01
7.249999999999999778e-01
5.799999999999999600e-01
8.699999999999999956e-01
5.180000000000000160e-01
7.870000000000000329e-01
5.799999999999999600e-01
7.249999999999999778e-01
4.969999999999999973e-01
4.139999999999999791e-01
4.349999999999999978e-01
5.180000000000000160e-01
1.014999999999999902e+00
1.076999999999999957e+00
1.076999999999999957e+00
9.739999999999999769e-01
6.009999999999999787e-01
1.098000000000000087e+00
7.039999999999999591e-01
6.420000000000000151e-01
9.739999999999999769e-01
7.670000000000000151e-01
6.420000000000000151e-01
6.840000000000000524e-01
1.512000000000000011e+00
1.056999999999999940e+00
1.677999999999999936e+00
9.320000000000000506e-01
1.036000000000000032e+00
1.429999999999999938e+00
2.051000000000000156e+00
1.159999999999999920e+00
1.739999999999999991e+00
2.713999999999999968e+00
7.870000000000000329e-01
1.491999999999999993e+00
6.420000000000000151e-01
2.341000000000000192e+00
1.989000000000000101e+00
1.201999999999999957e+00
7.670000000000000151e-01
1.637000000000000011e+00
1.409000000000000030e+00
1.014999999999999902e+00
8.699999999999999956e-01
1.760999999999999899e+00
1.243000000000000105e+00
2.528000000000000025e+00
5.780000000000000249e+00
5.551999999999999602e+00
4.184999999999999609e+00
5.924999999999999822e+00
5.221000000000000085e+00
2.341000000000000192e+00
4.288999999999999702e+00
2.486000000000000210e+00
2.589999999999999858e+00
2.900999999999999801e+00
1.967999999999999972e+00
2.341000000000000192e+00
2.258000000000000007e+00
2.775999999999999801e+00
1.574999999999999956e+00
2.258000000000000007e+00
1.181000000000000050e+00
1.201999999999999957e+00
1.699000000000000066e+00
1.512000000000000011e+00
1.098000000000000087e+00
1.366999999999999993e+00
1.387999999999999901e+00
2.507000000000000117e+00
1.822999999999999954e+00
1.264000000000000012e+00
2.299999999999999822e+00
6.840000000000000524e-01
6.009999999999999787e-01
1.449999999999999956e+00
1.429999999999999938e+00
1.864999999999999991e+00
2.486000000000000210e+00
1.677999999999999936e+00
3.232000000000000206e+00
3.355999999999999872e+00
2.112999999999999989e+00
2.299999999999999822e+00
1.387999999999999901e+00
1.532999999999999918e+00
1.574999999999999956e+00
2.383000000000000007e+00
1.677999999999999936e+00
1.221999999999999975e+00
1.139999999999999902e+00
1.181000000000000050e+00
1.118999999999999995e+00
1.574999999999999956e+00
1.429999999999999938e+00
1.429999999999999938e+00
1.159999999999999920e+00
1.076999999999999957e+00
1.118999999999999995e+00
1.554000000000000048e+00
1.532999999999999918e+00
8.080000000000000515e-01
1.221999999999999975e+00
1.181000000000000050e+00
1.221999999999999975e+00
1.616000000000000103e+00
1.201999999999999957e+00
1.657000000000000028e+00
8.080000000000000515e-01
1.098000000000000087e+00
1.118999999999999995e+00
1.304999999999999938e+00
1.409000000000000030e+00
1.532999999999999918e+00
1.574999999999999956e+00
1.760999999999999899e+00
1.574999999999999956e+00
1.118999999999999995e+00
1.056999999999999940e+00
1.284999999999999920e+00
1.346999999999999975e+00
1.532999999999999918e+00
1.076999999999999957e+00
1.554000000000000048e+00
1.719999999999999973e+00
1.098000000000000087e+00
1.532999999999999918e+00
2.362000000000000099e+00
1.967999999999999972e+00
2.673000000000000043e+00
1.201999999999999957e+00
1.471000000000000085e+00
1.616000000000000103e+00
1.739999999999999991e+00
2.383000000000000007e+00
1.076999999999999957e+00
2.133999999999999897e+00
2.486000000000000210e+00
2.051000000000000156e+00
1.491999999999999993e+00
2.258000000000000007e+00
9.320000000000000506e-01
1.098000000000000087e+00
4.139999999999999791e-01
4.969999999999999973e-01
1.098000000000000087e+00
8.699999999999999956e-01
1.782000000000000028e+00
1.574999999999999956e+00
1.554000000000000048e+00
1.637000000000000011e+00
1.366999999999999993e+00
1.076999999999999957e+00
1.677999999999999936e+00
1.616000000000000103e+00
1.449999999999999956e+00
1.366999999999999993e+00
7.039999999999999591e-01
9.939999999999999947e-01
1.326000000000000068e+00
1.864999999999999991e+00
1.449999999999999956e+00
1.284999999999999920e+00
1.159999999999999920e+00
1.076999999999999957e+00
7.459999999999999964e-01
1.637000000000000011e+00
1.782000000000000028e+00
1.118999999999999995e+00
1.719999999999999973e+00
1.491999999999999993e+00
1.927000000000000046e+00
1.366999999999999993e+00
1.967999999999999972e+00
1.449999999999999956e+00
1.885000000000000009e+00
1.118999999999999995e+00
1.594999999999999973e+00
1.491999999999999993e+00
9.529999999999999583e-01
9.739999999999999769e-01
9.939999999999999947e-01
1.076999999999999957e+00
1.014999999999999902e+00
9.529999999999999583e-01
1.056999999999999940e+00
1.014999999999999902e+00
3.519999999999999796e-01
1.326000000000000068e+00
1.409000000000000030e+00
6.840000000000000524e-01
1.014999999999999902e+00
8.699999999999999956e-01
1.491999999999999993e+00
1.201999999999999957e+00
1.471000000000000085e+00
1.181000000000000050e+00
1.243000000000000105e+00
1.719999999999999973e+00
5.799999999999999600e-01
7.670000000000000151e-01
8.289999999999999591e-01
1.491999999999999993e+00
1.387999999999999901e+00
4.349999999999999978e-01
6.630000000000000338e-01
1.264000000000000012e+00
7.249999999999999778e-01
6.420000000000000151e-01
1.616000000000000103e+00
1.264000000000000012e+00
9.739999999999999769e-01
5.590000000000000524e-01
1.471000000000000085e+00
8.910000000000000142e-01
5.180000000000000160e-01
6.009999999999999787e-01
5.390000000000000346e-01
8.289999999999999591e-01
1.118999999999999995e+00
8.910000000000000142e-01
6.420000000000000151e-01
1.243000000000000105e+00
7.249999999999999778e-01
9.939999999999999947e-01
1.014999999999999902e+00
1.056999999999999940e+00
8.910000000000000142e-01
4.139999999999999791e-01
9.320000000000000506e-01
9.320000000000000506e-01
8.080000000000000515e-01
8.289999999999999591e-01
1.221999999999999975e+00
8.699999999999999956e-01
8.080000000000000515e-01
5.799999999999999600e-01
8.699999999999999956e-01
7.249999999999999778e-01
7.249999999999999778e-01
4.969999999999999973e-01
3.729999999999999982e-01
4.560000000000000164e-01
1.471000000000000085e+00
1.056999999999999940e+00
8.080000000000000515e-01
1.159999999999999920e+00
3.940000000000000169e-01
8.489999999999999769e-01
4.969999999999999973e-01
6.219999999999999973e-01
3.310000000000000164e-01
3.940000000000000169e-01
6.840000000000000524e-01
1.056999999999999940e+00
4.969999999999999973e-01
3.940000000000000169e-01
7.039999999999999591e-01
7.249999999999999778e-01
4.969999999999999973e-01
4.349999999999999978e-01
8.489999999999999769e-01
3.109999999999999987e-01
7.249999999999999778e-01
1.304999999999999938e+00
1.989000000000000101e+00
1.677999999999999936e+00
8.080000000000000515e-01
1.574999999999999956e+00
1.677999999999999936e+00
1.657000000000000028e+00
1.429999999999999938e+00
1.699000000000000066e+00
2.258000000000000007e+00
1.284999999999999920e+00
2.112999999999999989e+00
1.076999999999999957e+00
1.699000000000000066e+00
1.594999999999999973e+00
8.289999999999999591e-01
1.616000000000000103e+00
1.181000000000000050e+00
1.594999999999999973e+00
1.181000000000000050e+00
1.076999999999999957e+00
6.219999999999999973e-01
6.420000000000000151e-01
6.420000000000000151e-01
5.390000000000000346e-01
5.799999999999999600e-01
6.009999999999999787e-01
9.529999999999999583e-01
1.118999999999999995e+00
3.729999999999999982e-01
4.139999999999999791e-01
3.940000000000000169e-01
6.420000000000000151e-01
4.560000000000000164e-01
7.249999999999999778e-01
4.769999999999999796e-01
5.180000000000000160e-01
3.729999999999999982e-01
6.009999999999999787e-01
4.969999999999999973e-01
5.390000000000000346e-01
3.940000000000000169e-01
5.390000000000000346e-01
3.519999999999999796e-01
3.109999999999999987e-01
3.729999999999999982e-01
2.489999999999999991e-01
4.769999999999999796e-01
4.349999999999999978e-01
4.560000000000000164e-01
6.840000000000000524e-01
3.940000000000000169e-01
3.729999999999999982e-01
2.489999999999999991e-01
3.310000000000000164e-01
3.729999999999999982e-01
4.349999999999999978e-01
3.729999999999999982e-01
3.519999999999999796e-01
2.069999999999999896e-01
4.349999999999999978e-01
2.489999999999999991e-01
4.139999999999999791e-01
2.280000000000000082e-01
3.109999999999999987e-01
2.489999999999999991e-01
2.899999999999999800e-01
3.109999999999999987e-01
5.390000000000000346e-01
3.109999999999999987e-01
4.560000000000000164e-01
2.899999999999999800e-01
3.519999999999999796e-01
4.139999999999999791e-01
3.109999999999999987e-01
3.729999999999999982e-01
3.940000000000000169e-01
3.940000000000000169e-01
3.729999999999999982e-01
3.310000000000000164e-01
3.729999999999999982e-01
2.899999999999999800e-01
6.009999999999999787e-01
4.560000000000000164e-01
4.969999999999999973e-01
2.690000000000000169e-01
3.109999999999999987e-01
4.139999999999999791e-01
4.769999999999999796e-01
4.349999999999999978e-01
3.729999999999999982e-01
3.519999999999999796e-01
3.310000000000000164e-01
4.769999999999999796e-01
4.349999999999999978e-01
5.799999999999999600e-01
2.899999999999999800e-01
3.940000000000000169e-01
2.489999999999999991e-01
3.519999999999999796e-01
2.899999999999999800e-01
3.519999999999999796e-01
3.109999999999999987e-01
2.489999999999999991e-01
3.519999999999999796e-01
4.769999999999999796e-01
4.349999999999999978e-01
4.969999999999999973e-01
2.899999999999999800e-01
3.940000000000000169e-01
3.310000000000000164e-01
3.310000000000000164e-01
3.310000000000000164e-01
4.349999999999999978e-01
4.349999999999999978e-01
4.139999999999999791e-01
6.219999999999999973e-01
5.180000000000000160e-01
3.109999999999999987e-01
3.310000000000000164e-01
3.109999999999999987e-01
5.180000000000000160e-01
3.519999999999999796e-01
2.899999999999999800e-01
3.109999999999999987e-01
4.560000000000000164e-01
5.180000000000000160e-01
3.109999999999999987e-01
4.969999999999999973e-01
4.560000000000000164e-01
4.349999999999999978e-01
6.219999999999999973e-01
3.310000000000000164e-01
4.969999999999999973e-01
7.670000000000000151e-01
5.799999999999999600e-01
1.326000000000000068e+00
6.219999999999999973e-01
1.284999999999999920e+00
9.739999999999999769e-01
5.799999999999999600e-01
7.039999999999999591e-01
6.420000000000000151e-01
6.219999999999999973e-01
7.670000000000000151e-01
5.590000000000000524e-01
8.080000000000000515e-01
6.219999999999999973e-01
6.420000000000000151e-01
6.009999999999999787e-01
6.420000000000000151e-01
7.670000000000000151e-01
7.870000000000000329e-01
8.080000000000000515e-01
7.039999999999999591e-01
6.630000000000000338e-01
8.080000000000000515e-01
9.320000000000000506e-01
7.249999999999999778e-01
7.459999999999999964e-01
6.219999999999999973e-01
5.799999999999999600e-01
4.769999999999999796e-01
3.940000000000000169e-01
7.039999999999999591e-01
5.180000000000000160e-01
7.870000000000000329e-01
4.139999999999999791e-01
7.670000000000000151e-01
6.219999999999999973e-01
4.560000000000000164e-01
5.180000000000000160e-01
6.009999999999999787e-01
5.799999999999999600e-01
5.390000000000000346e-01
6.009999999999999787e-01
7.459999999999999964e-01
1.159999999999999920e+00
7.670000000000000151e-01
7.249999999999999778e-01
6.840000000000000524e-01
1.346999999999999975e+00
5.180000000000000160e-01
3.519999999999999796e-01
6.009999999999999787e-01
6.009999999999999787e-01
4.769999999999999796e-01
4.139999999999999791e-01
3.109999999999999987e-01
3.109999999999999987e-01
2.489999999999999991e-01
4.560000000000000164e-01
8.080000000000000515e-01
3.729999999999999982e-01
3.940000000000000169e-01
2.489999999999999991e-01
4.139999999999999791e-01
3.109999999999999987e-01
2.069999999999999896e-01
1.859999999999999987e-01
2.690000000000000169e-01
4.769999999999999796e-01
4.139999999999999791e-01
4.560000000000000164e-01
5.180000000000000160e-01
2.280000000000000082e-01
2.489999999999999991e-01
3.109999999999999987e-01
6.009999999999999787e-01
5.717999999999999972e+00
2.942000000000000171e+00
1.284999999999999920e+00
3.004000000000000004e+00
2.838000000000000078e+00
1.947999999999999954e+00
8.699999999999999956e-01
4.139999999999999791e-01
3.519999999999999796e-01
3.314999999999999947e+00
3.729000000000000092e+00
4.434000000000000163e+00
1.284999999999999920e+00
7.039999999999999591e-01
4.139999999999999791e-01
1.118999999999999995e+00
8.080000000000000515e-01
1.098000000000000087e+00
1.366999999999999993e+00
7.039999999999999591e-01
1.719999999999999973e+00
2.072000000000000064e+00
1.657000000000000028e+00
2.069999999999999896e-01
8.699999999999999956e-01
1.243000000000000105e+00
2.775999999999999801e+00
2.568999999999999950e+00
2.403000000000000025e+00
2.383000000000000007e+00
5.390000000000000346e-01
1.036000000000000032e+00
2.051000000000000156e+00
8.699999999999999956e-01
9.529999999999999583e-01
1.387999999999999901e+00
2.652000000000000135e+00
3.940000000000000169e-01
8.289999999999999591e-01
1.905999999999999917e+00
2.690000000000000169e-01
8.080000000000000515e-01
1.532999999999999918e+00
3.729999999999999982e-01
7.249999999999999778e-01
1.159999999999999920e+00
6.630000000000000338e-01
3.940000000000000169e-01
7.459999999999999964e-01
5.799999999999999600e-01
4.560000000000000164e-01
5.390000000000000346e-01
3.940000000000000169e-01
6.420000000000000151e-01
7.870000000000000329e-01
5.590000000000000524e-01
1.387999999999999901e+00
1.947999999999999954e+00
1.471000000000000085e+00
1.967999999999999972e+00
1.284999999999999920e+00
1.304999999999999938e+00
1.637000000000000011e+00
1.719999999999999973e+00
1.181000000000000050e+00
1.532999999999999918e+00
1.782000000000000028e+00
1.304999999999999938e+00
1.574999999999999956e+00
1.905999999999999917e+00
1.967999999999999972e+00
1.409000000000000030e+00
1.243000000000000105e+00
1.118999999999999995e+00
7.039999999999999591e-01
1.264000000000000012e+00
9.939999999999999947e-01
1.409000000000000030e+00
1.076999999999999957e+00
1.284999999999999920e+00
1.221999999999999975e+00
1.346999999999999975e+00
1.243000000000000105e+00
1.326000000000000068e+00
9.529999999999999583e-01
1.409000000000000030e+00
1.471000000000000085e+00
1.782000000000000028e+00
1.449999999999999956e+00
1.699000000000000066e+00
1.346999999999999975e+00
1.657000000000000028e+00
1.118999999999999995e+00
2.029999999999999805e+00
3.310000000000000164e-01
7.249999999999999778e-01
1.409000000000000030e+00
2.029999999999999805e+00
2.009999999999999787e+00
7.670000000000000151e-01
6.009999999999999787e-01
8.489999999999999769e-01
1.056999999999999940e+00
3.729999999999999982e-01
1.429999999999999938e+00
6.630000000000000338e-01
6.219999999999999973e-01
8.910000000000000142e-01
3.310000000000000164e-01
9.739999999999999769e-01
5.390000000000000346e-01
3.940000000000000169e-01
6.630000000000000338e-01
1.243000000000000105e+00
4.969999999999999973e-01
7.670000000000000151e-01
3.729999999999999982e-01
1.118999999999999995e+00
2.489999999999999991e-01
5.590000000000000524e-01
3.310000000000000164e-01
3.729999999999999982e-01
5.180000000000000160e-01
3.729999999999999982e-01
4.560000000000000164e-01
3.940000000000000169e-01
3.519999999999999796e-01
6.219999999999999973e-01
3.310000000000000164e-01
2.489999999999999991e-01
4.969999999999999973e-01
2.899999999999999800e-01
3.940000000000000169e-01
4.560000000000000164e-01
3.519999999999999796e-01
4.969999999999999973e-01
3.310000000000000164e-01
4.139999999999999791e-01
6.219999999999999973e-01
4.349999999999999978e-01
3.729999999999999982e-01
3.109999999999999987e-01
3.519999999999999796e-01
3.729999999999999982e-01
5.180000000000000160e-01
2.489999999999999991e-01
4.560000000000000164e-01
4.969999999999999973e-01
4.969999999999999973e-01
6.420000000000000151e-01
3.310000000000000164e-01
3.109999999999999987e-01
2.489999999999999991e-01
4.139999999999999791e-01
2.280000000000000082e-01
1.660000000000000087e-01
3.310000000000000164e-01
3.729999999999999982e-01
2.069999999999999896e-01
3.310000000000000164e-01
5.590000000000000524e-01
5.180000000000000160e-01
2.069999999999999896e-01
4.139999999999999791e-01
3.940000000000000169e-01
3.519999999999999796e-01
4.560000000000000164e-01
2.069999999999999896e-01
2.489999999999999991e-01
4.349999999999999978e-01
1.660000000000000087e-01
4.349999999999999978e-01
3.519999999999999796e-01
5.799999999999999600e-01
5.180000000000000160e-01
3.729999999999999982e-01
4.560000000000000164e-01
4.560000000000000164e-01
5.180000000000000160e-01
4.560000000000000164e-01
4.349999999999999978e-01
4.349999999999999978e-01
5.180000000000000160e-01
3.310000000000000164e-01
4.969999999999999973e-01
3.519999999999999796e-01
6.219999999999999973e-01
4.769999999999999796e-01
3.109999999999999987e-01
4.139999999999999791e-01
2.690000000000000169e-01
3.940000000000000169e-01
1.660000000000000087e-01
4.139999999999999791e-01
2.280000000000000082e-01
5.799999999999999600e-01
2.489999999999999991e-01
2.690000000000000169e-01
5.390000000000000346e-01
6.420000000000000151e-01
1.660000000000000087e-01
2.280000000000000082e-01
5.180000000000000160e-01
3.109999999999999987e-01
2.489999999999999991e-01
3.729999999999999982e-01
3.310000000000000164e-01
1.859999999999999987e-01
2.899999999999999800e-01
3.519999999999999796e-01
2.280000000000000082e-01
5.799999999999999600e-01
3.109999999999999987e-01
2.069999999999999896e-01
4.769999999999999796e-01
1.660000000000000087e-01
4.969999999999999973e-01
2.489999999999999991e-01
1.660000000000000087e-01
3.519999999999999796e-01
1.660000000000000087e-01
4.349999999999999978e-01
3.519999999999999796e-01
4.769999999999999796e-01
2.489999999999999991e-01
3.940000000000000169e-01
2.069999999999999896e-01
3.310000000000000164e-01
3.109999999999999987e-01
4.349999999999999978e-01
3.310000000000000164e-01
4.139999999999999791e-01
4.560000000000000164e-01
2.069999999999999896e-01
6.420000000000000151e-01
4.139999999999999791e-01
3.310000000000000164e-01
5.390000000000000346e-01
2.690000000000000169e-01
4.560000000000000164e-01
4.139999999999999791e-01
4.349999999999999978e-01
3.729999999999999982e-01
7.249999999999999778e-01
5.180000000000000160e-01
3.729999999999999982e-01
4.560000000000000164e-01
5.390000000000000346e-01
6.630000000000000338e-01
5.180000000000000160e-01
5.590000000000000524e-01
4.769999999999999796e-01
4.769999999999999796e-01
4.769999999999999796e-01
4.769999999999999796e-01
4.139999999999999791e-01
4.139999999999999791e-01
4.139999999999999791e-01
3.519999999999999796e-01
5.590000000000000524e-01
4.969999999999999973e-01
2.690000000000000169e-01
6.420000000000000151e-01
6.630000000000000338e-01
5.180000000000000160e-01
4.349999999999999978e-01
4.139999999999999791e-01
3.940000000000000169e-01
4.139999999999999791e-01
4.139999999999999791e-01
3.109999999999999987e-01
4.769999999999999796e-01
2.899999999999999800e-01
4.139999999999999791e-01
4.560000000000000164e-01
2.690000000000000169e-01
3.519999999999999796e-01
5.180000000000000160e-01
3.729999999999999982e-01
4.560000000000000164e-01
3.729999999999999982e-01
2.899999999999999800e-01
4.560000000000000164e-01
1.859999999999999987e-01
6.009999999999999787e-01
3.729999999999999982e-01
2.690000000000000169e-01
5.590000000000000524e-01
5.590000000000000524e-01
4.769999999999999796e-01
4.769999999999999796e-01
6.420000000000000151e-01
5.590000000000000524e-01
2.899999999999999800e-01
4.139999999999999791e-01
4.560000000000000164e-01
3.310000000000000164e-01
5.390000000000000346e-01
3.940000000000000169e-01
3.940000000000000169e-01
4.769999999999999796e-01
5.799999999999999600e-01
4.560000000000000164e-01
4.139999999999999791e-01
4.349999999999999978e-01
4.349999999999999978e-01
5.180000000000000160e-01
3.519999999999999796e-01
3.729999999999999982e-01
4.769999999999999796e-01
3.519999999999999796e-01
3.519999999999999796e-01
4.349999999999999978e-01
2.899999999999999800e-01
5.180000000000000160e-01
2.489999999999999991e-01
4.560000000000000164e-01
4.349999999999999978e-01
2.690000000000000169e-01
8.080000000000000515e-01
2.069999999999999896e-01
5.180000000000000160e-01
4.769999999999999796e-01
2.280000000000000082e-01
5.390000000000000346e-01
3.729999999999999982e-01
4.769999999999999796e-01
3.729999999999999982e-01
1.859999999999999987e-01
4.769999999999999796e-01
2.069999999999999896e-01
5.390000000000000346e-01
7.249999999999999778e-01
3.519999999999999796e-01
6.009999999999999787e-01
2.899999999999999800e-01
4.969999999999999973e-01
2.489999999999999991e-01
5.180000000000000160e-01
3.940000000000000169e-01
3.109999999999999987e-01
4.969999999999999973e-01
2.899999999999999800e-01
4.349999999999999978e-01
7.670000000000000151e-01
5.180000000000000160e-01
3.940000000000000169e-01
2.690000000000000169e-01
4.769999999999999796e-01
5.180000000000000160e-01
2.069999999999999896e-01
6.009999999999999787e-01
3.940000000000000169e-01
3.940000000000000169e-01
3.940000000000000169e-01
4.769999999999999796e-01
2.489999999999999991e-01
7.039999999999999591e-01
4.769999999999999796e-01
4.769999999999999796e-01
5.390000000000000346e-01
3.519999999999999796e-01
3.940000000000000169e-01
4.969999999999999973e-01
2.489999999999999991e-01
4.969999999999999973e-01
4.349999999999999978e-01
3.310000000000000164e-01
4.349999999999999978e-01
4.349999999999999978e-01
1.660000000000000087e-01
5.590000000000000524e-01
4.769999999999999796e-01
5.390000000000000346e-01
5.390000000000000346e-01
2.690000000000000169e-01
5.799999999999999600e-01
5.590000000000000524e-01
3.310000000000000164e-01
5.180000000000000160e-01
5.590000000000000524e-01
1.859999999999999987e-01
5.590000000000000524e-01
4.769999999999999796e-01
4.769999999999999796e-01
3.940000000000000169e-01
5.590000000000000524e-01
2.280000000000000082e-01
8.289999999999999591e-01
4.969999999999999973e-01
3.310000000000000164e-01
5.180000000000000160e-01
4.139999999999999791e-01
3.519999999999999796e-01
4.349999999999999978e-01
2.069999999999999896e-01
4.139999999999999791e-01
3.519999999999999796e-01
2.690000000000000169e-01
3.940000000000000169e-01
3.109999999999999987e-01
3.940000000000000169e-01
4.769999999999999796e-01
3.940000000000000169e-01
7.039999999999999591e-01
2.489999999999999991e-01
3.940000000000000169e-01
5.180000000000000160e-01
2.280000000000000082e-01
5.590000000000000524e-01
2.690000000000000169e-01
4.969999999999999973e-01
1.859999999999999987e-01
5.180000000000000160e-01
4.560000000000000164e-01
2.690000000000000169e-01
4.969999999999999973e-01
3.109999999999999987e-01
4.560000000000000164e-01
4.139999999999999791e-01
5.590000000000000524e-01
2.899999999999999800e-01
5.390000000000000346e-01
2.489999999999999991e-01
5.180000000000000160e-01
2.489999999999999991e-01
3.940000000000000169e-01
3.940000000000000169e-01
2.280000000000000082e-01
4.969999999999999973e-01
4.139999999999999791e-01
3.940000000000000169e-01
4.139999999999999791e-01
3.940000000000000169e-01
2.690000000000000169e-01
7.039999999999999591e-01
2.069999999999999896e-01
5.590000000000000524e-01
2.280000000000000082e-01
3.109999999999999987e-01
2.069999999999999896e-01
2.069999999999999896e-01
4.969999999999999973e-01
2.069999999999999896e-01
3.109999999999999987e-01
3.729999999999999982e-01
3.940000000000000169e-01
4.349999999999999978e-01
4.969999999999999973e-01
5.390000000000000346e-01
4.349999999999999978e-01
4.560000000000000164e-01
5.180000000000000160e-01
4.769999999999999796e-01
2.280000000000000082e-01
6.840000000000000524e-01
2.690000000000000169e-01
2.690000000000000169e-01
4.769999999999999796e-01
5.799999999999999600e-01
3.729999999999999982e-01
6.840000000000000524e-01
4.139999999999999791e-01
4.969999999999999973e-01
3.940000000000000169e-01
4.139999999999999791e-01
4.560000000000000164e-01
4.969999999999999973e-01
4.139999999999999791e-01
4.769999999999999796e-01
5.590000000000000524e-01
3.310000000000000164e-01
8.910000000000000142e-01
9.939999999999999947e-01
7.870000000000000329e-01
9.739999999999999769e-01
1.927000000000000046e+00
1.947999999999999954e+00
1.594999999999999973e+00
1.221999999999999975e+00
2.278999999999999915e+00
1.927000000000000046e+00
2.879999999999999893e+00
1.719999999999999973e+00
1.699000000000000066e+00
1.554000000000000048e+00
1.594999999999999973e+00
1.822999999999999954e+00
1.802000000000000046e+00
1.616000000000000103e+00
1.532999999999999918e+00
1.243000000000000105e+00
1.449999999999999956e+00
1.739999999999999991e+00
1.264000000000000012e+00
1.802000000000000046e+00
1.616000000000000103e+00
1.512000000000000011e+00
1.243000000000000105e+00
1.677999999999999936e+00
1.326000000000000068e+00
1.677999999999999936e+00
1.864999999999999991e+00
1.885000000000000009e+00
2.423999999999999932e+00
1.905999999999999917e+00
2.383000000000000007e+00
2.029999999999999805e+00
1.574999999999999956e+00
1.554000000000000048e+00
2.341000000000000192e+00
1.554000000000000048e+00
2.258000000000000007e+00
1.491999999999999993e+00
1.387999999999999901e+00
1.989000000000000101e+00
1.927000000000000046e+00
3.314999999999999947e+00
1.989000000000000101e+00
1.429999999999999938e+00
1.118999999999999995e+00
1.905999999999999917e+00
1.905999999999999917e+00
1.574999999999999956e+00
1.366999999999999993e+00
1.429999999999999938e+00
1.036000000000000032e+00
1.181000000000000050e+00
1.201999999999999957e+00
6.420000000000000151e-01
9.739999999999999769e-01
1.098000000000000087e+00
9.529999999999999583e-01
8.910000000000000142e-01
1.014999999999999902e+00
8.489999999999999769e-01
4.769999999999999796e-01
9.529999999999999583e-01
8.489999999999999769e-01
8.080000000000000515e-01
9.120000000000000329e-01
4.969999999999999973e-01
6.630000000000000338e-01
1.036000000000000032e+00
8.489999999999999769e-01
9.120000000000000329e-01
6.009999999999999787e-01
7.670000000000000151e-01
6.219999999999999973e-01
6.219999999999999973e-01
8.910000000000000142e-01
7.459999999999999964e-01
5.799999999999999600e-01
9.939999999999999947e-01
1.304999999999999938e+00
1.098000000000000087e+00
8.289999999999999591e-01
9.120000000000000329e-01
1.221999999999999975e+00
8.080000000000000515e-01
1.118999999999999995e+00
1.139999999999999902e+00
1.637000000000000011e+00
8.080000000000000515e-01
1.221999999999999975e+00
1.429999999999999938e+00
2.174999999999999822e+00
3.190999999999999837e+00
1.739999999999999991e+00
2.278999999999999915e+00
2.051000000000000156e+00
1.429999999999999938e+00
1.927000000000000046e+00
2.072000000000000064e+00
2.362000000000000099e+00
2.609999999999999876e+00
4.246999999999999886e+00
1.637000000000000011e+00
2.133999999999999897e+00
2.029999999999999805e+00
1.181000000000000050e+00
2.341000000000000192e+00
1.076999999999999957e+00
9.739999999999999769e-01
9.320000000000000506e-01
1.304999999999999938e+00
1.098000000000000087e+00
1.637000000000000011e+00
7.039999999999999591e-01
1.181000000000000050e+00
9.529999999999999583e-01
1.221999999999999975e+00
7.459999999999999964e-01
7.039999999999999591e-01
9.739999999999999769e-01
7.249999999999999778e-01
6.009999999999999787e-01
2.899999999999999800e-01
7.459999999999999964e-01
9.529999999999999583e-01
6.009999999999999787e-01
9.739999999999999769e-01
6.219999999999999973e-01
8.489999999999999769e-01
1.036000000000000032e+00
7.039999999999999591e-01
8.699999999999999956e-01
7.459999999999999964e-01
8.699999999999999956e-01
7.870000000000000329e-01
5.180000000000000160e-01
5.180000000000000160e-01
6.219999999999999973e-01
4.349999999999999978e-01
3.109999999999999987e-01
2.489999999999999991e-01
2.690000000000000169e-01
2.280000000000000082e-01
2.280000000000000082e-01
1.660000000000000087e-01
2.280000000000000082e-01
2.899999999999999800e-01
4.139999999999999791e-01
5.180000000000000160e-01
4.769999999999999796e-01
4.139999999999999791e-01
4.769999999999999796e-01
3.310000000000000164e-01
1.859999999999999987e-01
3.519999999999999796e-01
2.489999999999999991e-01
2.280000000000000082e-01
3.940000000000000169e-01
3.310000000000000164e-01
2.899999999999999800e-01
5.390000000000000346e-01
9.120000000000000329e-01
1.056999999999999940e+00
2.690000000000000169e-01
2.690000000000000169e-01
5.590000000000000524e-01
2.690000000000000169e-01
6.009999999999999787e-01
8.489999999999999769e-01
3.109999999999999987e-01
5.390000000000000346e-01
5.180000000000000160e-01
2.489999999999999991e-01
2.489999999999999991e-01
3.310000000000000164e-01
6.009999999999999787e-01
4.769999999999999796e-01
3.109999999999999987e-01
3.729999999999999982e-01
6.420000000000000151e-01
3.109999999999999987e-01
4.969999999999999973e-01
5.390000000000000346e-01
4.769999999999999796e-01
4.349999999999999978e-01
7.039999999999999591e-01
6.630000000000000338e-01
9.529999999999999583e-01
7.039999999999999591e-01
9.320000000000000506e-01
9.939999999999999947e-01
1.076999999999999957e+00
8.489999999999999769e-01
6.630000000000000338e-01
8.489999999999999769e-01
6.420000000000000151e-01
9.739999999999999769e-01
6.009999999999999787e-01
6.420000000000000151e-01
6.219999999999999973e-01
1.387999999999999901e+00
9.320000000000000506e-01
1.346999999999999975e+00
1.699000000000000066e+00
1.554000000000000048e+00
1.076999999999999957e+00
1.429999999999999938e+00
1.181000000000000050e+00
1.864999999999999991e+00
3.790999999999999925e+00
1.181000000000000050e+00
6.219999999999999973e-01
1.657000000000000028e+00
1.657000000000000028e+00
1.637000000000000011e+00
1.554000000000000048e+00
7.039999999999999591e-01
1.637000000000000011e+00
1.159999999999999920e+00
1.181000000000000050e+00
4.969999999999999973e-01
1.366999999999999993e+00
5.799999999999999600e-01
3.109999999999999987e-01
3.109999999999999987e-01
3.310000000000000164e-01
2.489999999999999991e-01
3.310000000000000164e-01
3.729999999999999982e-01
1.660000000000000087e-01
2.899999999999999800e-01
2.280000000000000082e-01
1.859999999999999987e-01
5.390000000000000346e-01
2.690000000000000169e-01
3.310000000000000164e-01
3.519999999999999796e-01
2.069999999999999896e-01
2.690000000000000169e-01
2.280000000000000082e-01
1.660000000000000087e-01
1.660000000000000087e-01
7.039999999999999591e-01
1.760999999999999899e+00
3.564000000000000057e+00
2.403000000000000025e+00
2.319999999999999840e+00
2.673000000000000043e+00
1.967999999999999972e+00
2.362000000000000099e+00
1.927000000000000046e+00
2.734999999999999876e+00
2.009999999999999787e+00
1.264000000000000012e+00
1.346999999999999975e+00
2.154999999999999805e+00
2.486000000000000210e+00
1.512000000000000011e+00
1.304999999999999938e+00
1.782000000000000028e+00
2.051000000000000156e+00
3.149000000000000021e+00
4.227000000000000313e+00
2.589999999999999858e+00
2.029999999999999805e+00
2.383000000000000007e+00
1.885000000000000009e+00
1.657000000000000028e+00
2.237999999999999989e+00
1.098000000000000087e+00
2.299999999999999822e+00
2.652000000000000135e+00
2.258000000000000007e+00
1.699000000000000066e+00
2.072000000000000064e+00
2.092999999999999972e+00
1.554000000000000048e+00
2.673000000000000043e+00
2.029999999999999805e+00
1.554000000000000048e+00
1.429999999999999938e+00
1.947999999999999954e+00
1.719999999999999973e+00
1.989000000000000101e+00
1.221999999999999975e+00
2.507000000000000117e+00
1.967999999999999972e+00
1.739999999999999991e+00
1.594999999999999973e+00
2.486000000000000210e+00
2.258000000000000007e+00
1.967999999999999972e+00
2.217000000000000082e+00
1.885000000000000009e+00
1.719999999999999973e+00
1.905999999999999917e+00
1.864999999999999991e+00
2.403000000000000025e+00
1.532999999999999918e+00
1.616000000000000103e+00
2.423999999999999932e+00
1.554000000000000048e+00
2.154999999999999805e+00
1.822999999999999954e+00
2.029999999999999805e+00
1.699000000000000066e+00
2.112999999999999989e+00
2.319999999999999840e+00
1.802000000000000046e+00
1.677999999999999936e+00
1.243000000000000105e+00
1.822999999999999954e+00
2.133999999999999897e+00
1.905999999999999917e+00
1.471000000000000085e+00
2.879999999999999893e+00
1.699000000000000066e+00
2.112999999999999989e+00
2.174999999999999822e+00
1.409000000000000030e+00
2.362000000000000099e+00
2.278999999999999915e+00
1.491999999999999993e+00
2.568999999999999950e+00
1.677999999999999936e+00
1.387999999999999901e+00
2.092999999999999972e+00
1.802000000000000046e+00
1.616000000000000103e+00
1.512000000000000011e+00
2.154999999999999805e+00
1.429999999999999938e+00
1.532999999999999918e+00
1.885000000000000009e+00
2.383000000000000007e+00
1.905999999999999917e+00
1.864999999999999991e+00
2.072000000000000064e+00
2.174999999999999822e+00
2.133999999999999897e+00
1.409000000000000030e+00
1.594999999999999973e+00
2.278999999999999915e+00
1.989000000000000101e+00
1.491999999999999993e+00
1.449999999999999956e+00
2.072000000000000064e+00
1.036000000000000032e+00
2.009999999999999787e+00
1.366999999999999993e+00
1.844000000000000083e+00
1.554000000000000048e+00
1.637000000000000011e+00
1.574999999999999956e+00
1.512000000000000011e+00
1.637000000000000011e+00
1.159999999999999920e+00
1.532999999999999918e+00
2.217000000000000082e+00
9.939999999999999947e-01
1.181000000000000050e+00
2.154999999999999805e+00
2.051000000000000156e+00
1.760999999999999899e+00
2.217000000000000082e+00
1.822999999999999954e+00
1.760999999999999899e+00
1.967999999999999972e+00
2.341000000000000192e+00
8.080000000000000515e-01
1.594999999999999973e+00
1.574999999999999956e+00
2.154999999999999805e+00
1.927000000000000046e+00
1.989000000000000101e+00
3.811999999999999833e+00
6.277999999999999581e+00
6.152999999999999581e+00
1.361200000000000010e+01
9.923999999999999488e+00
1.274200000000000088e+01
9.115999999999999659e+00
1.203700000000000081e+01
7.894000000000000128e+00
2.464999999999999858e+00
6.402000000000000135e+00
6.360000000000000320e+00
1.264000000000000012e+00
3.729000000000000092e+00
5.241999999999999993e+00
5.158999999999999808e+00
1.066999999999999993e+01
4.703000000000000291e+00
7.562000000000000277e+00
7.666000000000000369e+00
3.253000000000000114e+00
3.833000000000000185e+00
4.019000000000000128e+00
3.439000000000000057e+00
6.277999999999999581e+00
2.548000000000000043e+00
2.133999999999999897e+00
1.989000000000000101e+00
7.039999999999999591e-01
8.910000000000000142e-01
4.139999999999999791e-01
4.349999999999999978e-01
5.390000000000000346e-01
3.729999999999999982e-01
2.690000000000000169e-01
1.859999999999999987e-01
2.489999999999999991e-01
3.729999999999999982e-01
4.560000000000000164e-01
5.180000000000000160e-01
2.899999999999999800e-01
1.660000000000000087e-01
2.280000000000000082e-01
1.660000000000000087e-01
2.280000000000000082e-01
1.660000000000000087e-01
2.069999999999999896e-01
2.489999999999999991e-01
4.139999999999999791e-01
1.239999999999999991e-01
2.069999999999999896e-01
1.660000000000000087e-01
2.489999999999999991e-01
1.660000000000000087e-01
2.069999999999999896e-01
1.859999999999999987e-01
1.239999999999999991e-01
2.069999999999999896e-01
2.507000000000000117e+00
3.128000000000000114e+00
2.280000000000000082e-01
1.859999999999999987e-01
1.660000000000000087e-01
6.009999999999999787e-01
1.243000000000000105e+00
2.069999999999999896e-01
1.239999999999999991e-01
1.660000000000000087e-01
1.859999999999999987e-01
5.180000000000000160e-01
6.009999999999999787e-01
1.660000000000000087e-01
1.239999999999999991e-01
1.859999999999999987e-01
4.769999999999999796e-01
1.239999999999999991e-01
1.660000000000000087e-01
1.859999999999999987e-01
2.280000000000000082e-01
1.239999999999999991e-01
2.690000000000000169e-01
1.449999999999999900e-01
4.560000000000000164e-01
1.859999999999999987e-01
1.660000000000000087e-01
1.660000000000000087e-01
1.660000000000000087e-01
1.660000000000000087e-01
3.956999999999999851e+00
3.169999999999999929e+00
2.568999999999999950e+00
7.039999999999999591e-01
5.590000000000000524e-01
2.690000000000000169e-01
2.280000000000000082e-01
7.459999999999999964e-01
7.039999999999999591e-01
7.459999999999999964e-01
1.036000000000000032e+00
3.109999999999999987e-01
3.310000000000000164e-01
2.069999999999999896e-01
2.489999999999999991e-01
1.859999999999999987e-01
3.109999999999999987e-01
2.069999999999999896e-01
1.449999999999999900e-01
5.590000000000000524e-01
3.109999999999999987e-01
2.899999999999999800e-01
2.280000000000000082e-01
3.109999999999999987e-01
1.660000000000000087e-01
2.489999999999999991e-01
2.280000000000000082e-01
3.109999999999999987e-01
1.014999999999999902e+00
1.326000000000000068e+00
6.630000000000000338e-01
4.349999999999999978e-01
1.366999999999999993e+00
1.181000000000000050e+00
4.560000000000000164e-01
3.109999999999999987e-01
3.519999999999999796e-01
3.109999999999999987e-01
2.690000000000000169e-01
6.219999999999999973e-01
2.690000000000000169e-01
6.630000000000000338e-01
2.899999999999999800e-01
3.940000000000000169e-01
3.109999999999999987e-01
2.280000000000000082e-01
2.899999999999999800e-01
1.660000000000000087e-01
2.899999999999999800e-01
2.690000000000000169e-01
2.899999999999999800e-01
2.489999999999999991e-01
7.249999999999999778e-01
2.069999999999999896e-01
3.310000000000000164e-01
2.489999999999999991e-01
2.069999999999999896e-01
2.069999999999999896e-01
5.390000000000000346e-01
3.310000000000000164e-01
2.069999999999999896e-01
2.280000000000000082e-01
6.009999999999999787e-01
2.690000000000000169e-01
1.239999999999999991e-01
5.180000000000000160e-01
3.519999999999999796e-01
6.420000000000000151e-01
3.310000000000000164e-01
5.590000000000000524e-01
2.489999999999999991e-01
4.769999999999999796e-01
3.109999999999999987e-01
2.690000000000000169e-01
6.009999999999999787e-01
2.690000000000000169e-01
2.280000000000000082e-01
3.109999999999999987e-01
1.859999999999999987e-01
3.109999999999999987e-01
5.799999999999999600e-01
3.940000000000000169e-01
2.690000000000000169e-01
7.459999999999999964e-01
3.729999999999999982e-01
2.690000000000000169e-01
5.180000000000000160e-01
2.690000000000000169e-01
2.069999999999999896e-01
2.899999999999999800e-01
2.069999999999999896e-01
5.590000000000000524e-01
1.859999999999999987e-01
1.660000000000000087e-01
6.219999999999999973e-01
2.690000000000000169e-01
6.420000000000000151e-01
2.069999999999999896e-01
2.280000000000000082e-01
2.899999999999999800e-01
2.280000000000000082e-01
6.009999999999999787e-01
1.859999999999999987e-01
3.729999999999999982e-01
2.690000000000000169e-01
2.489999999999999991e-01
5.390000000000000346e-01
2.899999999999999800e-01
2.489999999999999991e-01
4.349999999999999978e-01
4.969999999999999973e-01
5.390000000000000346e-01
9.739999999999999769e-01
9.739999999999999769e-01
4.769999999999999796e-01
4.139999999999999791e-01
5.590000000000000524e-01
4.139999999999999791e-01
3.729999999999999982e-01
4.969999999999999973e-01
3.109999999999999987e-01
2.690000000000000169e-01
5.799999999999999600e-01
4.969999999999999973e-01
1.660000000000000087e-01
2.280000000000000082e-01
5.799999999999999600e-01
3.310000000000000164e-01
2.690000000000000169e-01
3.940000000000000169e-01
6.840000000000000524e-01
2.280000000000000082e-01
2.489999999999999991e-01
2.899999999999999800e-01
5.390000000000000346e-01
2.690000000000000169e-01
2.069999999999999896e-01
2.690000000000000169e-01
2.069999999999999896e-01
2.280000000000000082e-01
3.109999999999999987e-01
2.899999999999999800e-01
2.280000000000000082e-01
2.899999999999999800e-01
9.320000000000000506e-01
7.039999999999999591e-01
8.289999999999999591e-01
8.289999999999999591e-01
8.489999999999999769e-01
8.699999999999999956e-01
5.390000000000000346e-01
6.630000000000000338e-01
4.969999999999999973e-01
2.690000000000000169e-01
4.349999999999999978e-01
3.519999999999999796e-01
4.139999999999999791e-01
4.349999999999999978e-01
5.390000000000000346e-01
4.769999999999999796e-01
5.180000000000000160e-01
4.969999999999999973e-01
2.690000000000000169e-01
2.489999999999999991e-01
2.899999999999999800e-01
3.729999999999999982e-01
2.899999999999999800e-01
3.109999999999999987e-01
5.180000000000000160e-01
4.969999999999999973e-01
2.899999999999999800e-01
3.109999999999999987e-01
4.560000000000000164e-01
3.109999999999999987e-01
6.420000000000000151e-01
6.420000000000000151e-01
4.139999999999999791e-01
4.560000000000000164e-01
3.310000000000000164e-01
7.249999999999999778e-01
5.390000000000000346e-01
6.630000000000000338e-01
6.219999999999999973e-01
6.840000000000000524e-01
5.180000000000000160e-01
5.799999999999999600e-01
5.180000000000000160e-01
8.699999999999999956e-01
4.969999999999999973e-01
4.560000000000000164e-01
6.840000000000000524e-01
7.870000000000000329e-01
8.289999999999999591e-01
6.009999999999999787e-01
4.560000000000000164e-01
5.180000000000000160e-01
2.489999999999999991e-01
2.069999999999999896e-01
3.310000000000000164e-01
5.590000000000000524e-01
4.560000000000000164e-01
5.590000000000000524e-01
3.940000000000000169e-01
4.560000000000000164e-01
1.239999999999999991e-01
2.690000000000000169e-01
2.489999999999999991e-01
3.109999999999999987e-01
1.859999999999999987e-01
2.069999999999999896e-01
2.489999999999999991e-01
4.139999999999999791e-01
3.940000000000000169e-01
3.109999999999999987e-01
1.449999999999999900e-01
3.109999999999999987e-01
2.489999999999999991e-01
2.069999999999999896e-01
2.690000000000000169e-01
2.069999999999999896e-01
2.489999999999999991e-01
3.519999999999999796e-01
4.349999999999999978e-01
3.109999999999999987e-01
3.109999999999999987e-01
2.489999999999999991e-01
2.280000000000000082e-01
1.449999999999999900e-01
1.859999999999999987e-01
1.859999999999999987e-01
4.139999999999999791e-01
3.310000000000000164e-01
3.519999999999999796e-01
5.180000000000000160e-01
4.560000000000000164e-01
2.489999999999999991e-01
1.859999999999999987e-01
2.489999999999999991e-01
2.069999999999999896e-01
2.280000000000000082e-01
1.859999999999999987e-01
2.690000000000000169e-01
2.069999999999999896e-01
1.660000000000000087e-01
5.799999999999999600e-01
3.940000000000000169e-01
1.859999999999999987e-01
2.899999999999999800e-01
1.859999999999999987e-01
1.449999999999999900e-01
3.519999999999999796e-01
2.690000000000000169e-01
1.859999999999999987e-01
2.069999999999999896e-01
1.859999999999999987e-01
1.449999999999999900e-01
3.519999999999999796e-01
3.940000000000000169e-01
2.489999999999999991e-01
2.280000000000000082e-01
2.899999999999999800e-01
2.280000000000000082e-01
1.449999999999999900e-01
1.859999999999999987e-01
1.859999999999999987e-01
2.069999999999999896e-01
1.859999999999999987e-01
3.310000000000000164e-01
3.729999999999999982e-01
1.660000000000000087e-01
2.280000000000000082e-01
2.690000000000000169e-01
1.859999999999999987e-01
2.069999999999999896e-01
2.489999999999999991e-01
2.690000000000000169e-01
2.899999999999999800e-01
2.280000000000000082e-01
3.940000000000000169e-01
3.310000000000000164e-01
3.519999999999999796e-01
2.690000000000000169e-01
2.280000000000000082e-01
1.859999999999999987e-01
2.280000000000000082e-01
2.280000000000000082e-01
2.489999999999999991e-01
3.109999999999999987e-01
1.859999999999999987e-01
4.560000000000000164e-01
2.069999999999999896e-01
1.859999999999999987e-01
2.069999999999999896e-01
1.660000000000000087e-01
2.690000000000000169e-01
1.859999999999999987e-01
1.660000000000000087e-01
2.069999999999999896e-01
1.660000000000000087e-01
2.690000000000000169e-01
3.519999999999999796e-01
3.519999999999999796e-01
4.969999999999999973e-01
1.239999999999999991e-01
1.660000000000000087e-01
1.239999999999999991e-01
1.239999999999999991e-01
1.239999999999999991e-01
1.239999999999999991e-01
1.239999999999999991e-01
2.280000000000000082e-01
1.660000000000000087e-01
1.660000000000000087e-01
1.660000000000000087e-01
2.489999999999999991e-01
1.449999999999999900e-01
3.940000000000000169e-01
6.009999999999999787e-01
2.690000000000000169e-01
1.859999999999999987e-01
2.690000000000000169e-01
6.630000000000000338e-01
6.420000000000000151e-01
3.310000000000000164e-01
1.859999999999999987e-01
2.069999999999999896e-01
1.660000000000000087e-01
2.280000000000000082e-01
1.449999999999999900e-01
1.660000000000000087e-01
1.239999999999999991e-01
4.349999999999999978e-01
4.349999999999999978e-01
1.859999999999999987e-01
2.069999999999999896e-01
2.280000000000000082e-01
5.590000000000000524e-01
7.249999999999999778e-01
1.594999999999999973e+00
6.840000000000000524e-01
5.590000000000000524e-01
3.729999999999999982e-01
3.729999999999999982e-01
3.940000000000000169e-01
4.769999999999999796e-01
4.769999999999999796e-01
8.289999999999999591e-01
5.390000000000000346e-01
3.519999999999999796e-01
3.940000000000000169e-01
3.519999999999999796e-01
3.519999999999999796e-01
3.729999999999999982e-01
3.109999999999999987e-01
3.310000000000000164e-01
3.729999999999999982e-01
4.769999999999999796e-01
2.899999999999999800e-01
5.180000000000000160e-01
5.590000000000000524e-01
3.940000000000000169e-01
3.310000000000000164e-01
2.899999999999999800e-01
3.729999999999999982e-01
3.940000000000000169e-01
3.109999999999999987e-01
1.201999999999999957e+00
2.403000000000000025e+00
5.390000000000000346e-01
2.690000000000000169e-01
4.560000000000000164e-01
2.900999999999999801e+00
8.080000000000000515e-01
6.219999999999999973e-01
1.677999999999999936e+00
2.690000000000000169e-01
2.690000000000000169e-01
2.899999999999999800e-01
2.092999999999999972e+00
8.699999999999999956e-01
2.489999999999999991e-01
5.799999999999999600e-01
1.159999999999999920e+00
1.243000000000000105e+00
7.670000000000000151e-01
2.051000000000000156e+00
2.069999999999999896e-01
1.449999999999999900e-01
1.239999999999999991e-01
2.280000000000000082e-01
9.320000000000000506e-01
5.390000000000000346e-01
6.009999999999999787e-01
1.512000000000000011e+00
1.056999999999999940e+00
3.310000000000000164e-01
1.014999999999999902e+00
3.519999999999999796e-01
5.390000000000000346e-01
6.630000000000000338e-01
1.782000000000000028e+00
3.310000000000000164e-01
2.690000000000000169e-01
2.069999999999999896e-01
1.660000000000000087e-01
2.280000000000000082e-01
7.670000000000000151e-01
2.899999999999999800e-01
1.076999999999999957e+00
1.326000000000000068e+00
2.899999999999999800e-01
1.098000000000000087e+00
1.760999999999999899e+00
2.319999999999999840e+00
2.899999999999999800e-01
1.802000000000000046e+00
9.739999999999999769e-01
1.532999999999999918e+00
9.320000000000000506e-01
2.133999999999999897e+00
1.159999999999999920e+00
4.560000000000000164e-01
1.491999999999999993e+00
1.677999999999999936e+00
1.221999999999999975e+00
2.690000000000000169e-01
9.320000000000000506e-01
2.280000000000000082e-01
2.009999999999999787e+00
1.076999999999999957e+00
2.299999999999999822e+00
1.159999999999999920e+00
1.760999999999999899e+00
7.670000000000000151e-01
8.489999999999999769e-01
1.221999999999999975e+00
2.528000000000000025e+00
1.098000000000000087e+00
3.519999999999999796e-01
1.660000000000000087e-01
3.109999999999999987e-01
5.180000000000000160e-01
5.799999999999999600e-01
1.967999999999999972e+00
2.589999999999999858e+00
3.729999999999999982e-01
4.769999999999999796e-01
6.630000000000000338e-01
8.289999999999999591e-01
1.264000000000000012e+00
1.739999999999999991e+00
1.243000000000000105e+00
1.366999999999999993e+00
1.927000000000000046e+00
1.409000000000000030e+00
2.489999999999999991e-01
3.310000000000000164e-01
1.859999999999999987e-01
7.670000000000000151e-01
1.657000000000000028e+00
6.630000000000000338e-01
1.574999999999999956e+00
7.670000000000000151e-01
1.181000000000000050e+00
2.489999999999999991e-01
3.940000000000000169e-01
6.219999999999999973e-01
1.098000000000000087e+00
1.532999999999999918e+00
7.039999999999999591e-01
6.420000000000000151e-01
5.390000000000000346e-01
1.719999999999999973e+00
8.080000000000000515e-01
6.009999999999999787e-01
1.471000000000000085e+00
9.739999999999999769e-01
8.289999999999999591e-01
1.014999999999999902e+00
1.076999999999999957e+00
9.320000000000000506e-01
1.429999999999999938e+00
1.554000000000000048e+00
5.180000000000000160e-01
8.289999999999999591e-01
1.014999999999999902e+00
1.594999999999999973e+00
1.036000000000000032e+00
6.009999999999999787e-01
4.349999999999999978e-01
8.699999999999999956e-01
1.264000000000000012e+00
5.590000000000000524e-01
9.939999999999999947e-01
7.039999999999999591e-01
9.320000000000000506e-01
6.630000000000000338e-01
1.118999999999999995e+00
1.491999999999999993e+00
9.529999999999999583e-01
7.249999999999999778e-01
1.264000000000000012e+00
8.489999999999999769e-01
4.769999999999999796e-01
1.243000000000000105e+00
1.346999999999999975e+00
8.910000000000000142e-01
1.014999999999999902e+00
2.899999999999999800e-01
7.870000000000000329e-01
1.284999999999999920e+00
8.489999999999999769e-01
9.529999999999999583e-01
1.616000000000000103e+00
1.076999999999999957e+00
7.249999999999999778e-01
7.249999999999999778e-01
1.677999999999999936e+00
9.529999999999999583e-01
8.289999999999999591e-01
1.181000000000000050e+00
9.120000000000000329e-01
8.699999999999999956e-01
1.076999999999999957e+00
6.420000000000000151e-01
5.799999999999999600e-01
6.420000000000000151e-01
6.009999999999999787e-01
5.390000000000000346e-01
1.660000000000000087e-01
2.690000000000000169e-01
6.630000000000000338e-01
6.420000000000000151e-01
6.009999999999999787e-01
6.009999999999999787e-01
3.109999999999999987e-01
2.362000000000000099e+00
1.532999999999999918e+00
1.076999999999999957e+00
5.590000000000000524e-01
9.120000000000000329e-01
3.310000000000000164e-01
2.069999999999999896e-01
7.249999999999999778e-01
1.159999999999999920e+00
4.139999999999999791e-01
1.076999999999999957e+00
1.201999999999999957e+00
1.118999999999999995e+00
1.471000000000000085e+00
2.217000000000000082e+00
2.092999999999999972e+00
3.419000000000000039e+00
1.366999999999999993e+00
2.029999999999999805e+00
1.098000000000000087e+00
5.799999999999999600e-01
4.769999999999999796e-01
5.390000000000000346e-01
3.519999999999999796e-01
4.349999999999999978e-01
4.349999999999999978e-01
4.969999999999999973e-01
5.590000000000000524e-01
4.349999999999999978e-01
5.590000000000000524e-01
5.180000000000000160e-01
6.420000000000000151e-01
1.859999999999999987e-01
2.690000000000000169e-01
3.519999999999999796e-01
3.310000000000000164e-01
3.519999999999999796e-01
3.109999999999999987e-01
6.420000000000000151e-01
5.180000000000000160e-01
3.310000000000000164e-01
2.069999999999999896e-01
3.109999999999999987e-01
3.729999999999999982e-01
2.280000000000000082e-01
3.109999999999999987e-01
2.280000000000000082e-01
2.069999999999999896e-01
3.109999999999999987e-01
2.489999999999999991e-01
1.859999999999999987e-01
5.390000000000000346e-01
2.280000000000000082e-01
6.420000000000000151e-01
1.859999999999999987e-01
2.690000000000000169e-01
2.690000000000000169e-01
3.109999999999999987e-01
2.280000000000000082e-01
2.489999999999999991e-01
2.280000000000000082e-01
2.690000000000000169e-01
2.069999999999999896e-01
2.069999999999999896e-01
4.769999999999999796e-01
3.109999999999999987e-01
1.660000000000000087e-01
3.310000000000000164e-01
4.139999999999999791e-01
3.109999999999999987e-01
3.109999999999999987e-01
3.310000000000000164e-01
2.069999999999999896e-01
3.729999999999999982e-01
3.310000000000000164e-01
2.899999999999999800e-01
2.069999999999999896e-01
4.349999999999999978e-01
3.109999999999999987e-01
1.859999999999999987e-01
3.310000000000000164e-01
2.280000000000000082e-01
1.449999999999999900e-01
3.729999999999999982e-01
3.940000000000000169e-01
1.429999999999999938e+00
3.310000000000000164e-01
5.799999999999999600e-01
7.039999999999999591e-01
4.769999999999999796e-01
1.859999999999999987e-01
3.940000000000000169e-01
1.449999999999999900e-01
1.239999999999999991e-01
1.859999999999999987e-01
2.069999999999999896e-01
1.449999999999999900e-01
2.069999999999999896e-01
1.449999999999999900e-01
3.109999999999999987e-01
3.729999999999999982e-01
3.519999999999999796e-01
5.180000000000000160e-01
3.109999999999999987e-01
2.690000000000000169e-01
3.519999999999999796e-01
2.489999999999999991e-01
3.729999999999999982e-01
3.109999999999999987e-01
3.940000000000000169e-01
4.969999999999999973e-01
3.310000000000000164e-01
2.489999999999999991e-01
3.940000000000000169e-01
8.289999999999999591e-01
3.940000000000000169e-01
2.280000000000000082e-01
3.519999999999999796e-01
3.310000000000000164e-01
3.310000000000000164e-01
2.899999999999999800e-01
3.310000000000000164e-01
2.489999999999999991e-01
2.690000000000000169e-01
4.139999999999999791e-01
3.940000000000000169e-01
3.519999999999999796e-01
5.180000000000000160e-01
1.660000000000000087e-01
1.660000000000000087e-01
1.859999999999999987e-01
1.449999999999999900e-01
2.280000000000000082e-01
1.859999999999999987e-01
2.899999999999999800e-01
2.069999999999999896e-01
2.069999999999999896e-01
1.660000000000000087e-01
2.899999999999999800e-01
4.969999999999999973e-01
1.859999999999999987e-01
2.489999999999999991e-01
1.660000000000000087e-01
2.489999999999999991e-01
2.069999999999999896e-01
2.690000000000000169e-01
1.449999999999999900e-01
2.690000000000000169e-01
1.660000000000000087e-01
1.239999999999999991e-01
3.519999999999999796e-01
4.560000000000000164e-01
1.859999999999999987e-01
1.449999999999999900e-01
1.660000000000000087e-01
2.489999999999999991e-01
4.139999999999999791e-01
2.899999999999999800e-01
2.280000000000000082e-01
1.449999999999999900e-01
1.449999999999999900e-01
1.660000000000000087e-01
4.560000000000000164e-01
4.560000000000000164e-01
1.239999999999999991e-01
1.859999999999999987e-01
1.859999999999999987e-01
1.859999999999999987e-01
2.069999999999999896e-01
1.859999999999999987e-01
1.859999999999999987e-01
2.069999999999999896e-01
3.310000000000000164e-01
3.109999999999999987e-01
1.512000000000000011e+00
6.840000000000000524e-01
3.729999999999999982e-01
1.859999999999999987e-01
3.940000000000000169e-01
4.560000000000000164e-01
2.280000000000000082e-01
2.489999999999999991e-01
1.660000000000000087e-01
2.489999999999999991e-01
2.280000000000000082e-01
2.280000000000000082e-01
2.069999999999999896e-01
2.280000000000000082e-01
6.630000000000000338e-01
2.280000000000000082e-01
1.859999999999999987e-01
2.899999999999999800e-01
2.489999999999999991e-01
1.449999999999999900e-01
1.859999999999999987e-01
2.069999999999999896e-01
2.069999999999999896e-01
1.660000000000000087e-01
2.690000000000000169e-01
2.690000000000000169e-01
6.219999999999999973e-01
3.310000000000000164e-01
3.109999999999999987e-01
1.660000000000000087e-01
2.489999999999999991e-01
4.349999999999999978e-01
1.449999999999999900e-01
3.940000000000000169e-01
4.769999999999999796e-01
3.065999999999999837e+00
6.219999999999999973e-01
8.699999999999999956e-01
2.403000000000000025e+00
1.284999999999999920e+00
2.690000000000000169e-01
4.969999999999999973e-01
2.280000000000000082e-01
1.387999999999999901e+00
1.699000000000000066e+00
1.201999999999999957e+00
9.120000000000000329e-01
4.769999999999999796e-01
6.840000000000000524e-01
4.560000000000000164e-01
6.219999999999999973e-01
9.939999999999999947e-01
8.699999999999999956e-01
9.529999999999999583e-01
8.289999999999999591e-01
1.014999999999999902e+00
2.112999999999999989e+00
1.429999999999999938e+00
2.838000000000000078e+00
1.429999999999999938e+00
6.420000000000000151e-01
2.690000000000000169e-01
8.910000000000000142e-01
1.366999999999999993e+00
8.699999999999999956e-01
8.489999999999999769e-01
7.039999999999999591e-01
1.056999999999999940e+00
9.529999999999999583e-01
1.014999999999999902e+00
1.326000000000000068e+00
1.366999999999999993e+00
9.939999999999999947e-01
1.387999999999999901e+00
2.072000000000000064e+00
1.056999999999999940e+00
1.429999999999999938e+00
1.822999999999999954e+00
8.910000000000000142e-01
5.180000000000000160e-01
1.326000000000000068e+00
9.529999999999999583e-01
1.159999999999999920e+00
1.076999999999999957e+00
1.512000000000000011e+00
1.471000000000000085e+00
1.056999999999999940e+00
9.320000000000000506e-01
1.221999999999999975e+00
9.320000000000000506e-01
2.237999999999999989e+00
1.304999999999999938e+00
1.243000000000000105e+00
1.574999999999999956e+00
1.201999999999999957e+00
1.366999999999999993e+00
1.181000000000000050e+00
1.616000000000000103e+00
1.885000000000000009e+00
1.429999999999999938e+00
1.637000000000000011e+00
1.449999999999999956e+00
7.870000000000000329e-01
1.098000000000000087e+00
1.304999999999999938e+00
1.036000000000000032e+00
1.304999999999999938e+00
9.939999999999999947e-01
8.489999999999999769e-01
1.181000000000000050e+00
1.076999999999999957e+00
8.699999999999999956e-01
9.939999999999999947e-01
1.326000000000000068e+00
1.512000000000000011e+00
1.139999999999999902e+00
1.098000000000000087e+00
3.310000000000000164e-01
1.139999999999999902e+00
9.120000000000000329e-01
1.264000000000000012e+00
6.009999999999999787e-01
9.320000000000000506e-01
3.109999999999999987e-01
1.118999999999999995e+00
9.320000000000000506e-01
8.080000000000000515e-01
1.076999999999999957e+00
1.449999999999999956e+00
9.939999999999999947e-01
5.390000000000000346e-01
5.799999999999999600e-01
2.690000000000000169e-01
3.109999999999999987e-01
9.120000000000000329e-01
7.670000000000000151e-01
7.249999999999999778e-01
9.939999999999999947e-01
1.429999999999999938e+00
1.014999999999999902e+00
7.459999999999999964e-01
8.080000000000000515e-01
2.489999999999999991e-01
2.489999999999999991e-01
7.670000000000000151e-01
6.009999999999999787e-01
3.519999999999999796e-01
5.799999999999999600e-01
7.870000000000000329e-01
3.310000000000000164e-01
6.219999999999999973e-01
7.670000000000000151e-01
7.870000000000000329e-01
5.390000000000000346e-01
4.139999999999999791e-01
3.109999999999999987e-01
8.080000000000000515e-01
4.349999999999999978e-01
5.799999999999999600e-01
3.109999999999999987e-01
4.969999999999999973e-01
6.630000000000000338e-01
4.560000000000000164e-01
8.080000000000000515e-01
1.859999999999999987e-01
6.630000000000000338e-01
2.489999999999999991e-01
7.039999999999999591e-01
7.039999999999999591e-01
7.870000000000000329e-01
4.560000000000000164e-01
6.630000000000000338e-01
5.799999999999999600e-01
5.390000000000000346e-01
9.939999999999999947e-01
9.529999999999999583e-01
8.289999999999999591e-01
8.489999999999999769e-01
2.069999999999999896e-01
8.489999999999999769e-01
9.939999999999999947e-01
4.139999999999999791e-01
9.320000000000000506e-01
7.249999999999999778e-01
5.180000000000000160e-01
5.390000000000000346e-01
6.630000000000000338e-01
7.870000000000000329e-01
8.489999999999999769e-01
3.940000000000000169e-01
9.120000000000000329e-01
8.489999999999999769e-01
4.769999999999999796e-01
8.489999999999999769e-01
6.219999999999999973e-01
8.910000000000000142e-01
7.459999999999999964e-01
7.459999999999999964e-01
5.390000000000000346e-01
8.080000000000000515e-01
6.630000000000000338e-01
6.840000000000000524e-01
6.219999999999999973e-01
7.039999999999999591e-01
4.769999999999999796e-01
4.560000000000000164e-01
7.249999999999999778e-01
2.899999999999999800e-01
7.039999999999999591e-01
6.420000000000000151e-01
7.870000000000000329e-01
7.039999999999999591e-01
8.289999999999999591e-01
8.289999999999999591e-01
7.249999999999999778e-01
4.349999999999999978e-01
9.120000000000000329e-01
8.289999999999999591e-01
7.670000000000000151e-01
6.009999999999999787e-01
8.910000000000000142e-01
8.289999999999999591e-01
6.420000000000000151e-01
8.489999999999999769e-01
9.529999999999999583e-01
6.630000000000000338e-01
9.739999999999999769e-01
9.120000000000000329e-01
3.940000000000000169e-01
9.529999999999999583e-01
4.769999999999999796e-01
1.076999999999999957e+00
7.670000000000000151e-01
3.310000000000000164e-01
7.039999999999999591e-01
5.799999999999999600e-01
9.320000000000000506e-01
8.699999999999999956e-01
6.630000000000000338e-01
6.009999999999999787e-01
3.109999999999999987e-01
9.939999999999999947e-01
8.080000000000000515e-01
5.180000000000000160e-01
6.420000000000000151e-01
5.799999999999999600e-01
7.670000000000000151e-01
7.249999999999999778e-01
6.219999999999999973e-01
7.870000000000000329e-01
8.489999999999999769e-01
6.840000000000000524e-01
1.201999999999999957e+00
7.670000000000000151e-01
3.729999999999999982e-01
9.939999999999999947e-01
4.349999999999999978e-01
6.420000000000000151e-01
6.840000000000000524e-01
6.420000000000000151e-01
7.459999999999999964e-01
8.699999999999999956e-01
3.729999999999999982e-01
6.840000000000000524e-01
7.459999999999999964e-01
6.219999999999999973e-01
6.840000000000000524e-01
6.630000000000000338e-01
3.729999999999999982e-01
6.420000000000000151e-01
4.769999999999999796e-01
7.870000000000000329e-01
7.039999999999999591e-01
5.390000000000000346e-01
7.459999999999999964e-01
6.840000000000000524e-01
5.590000000000000524e-01
7.670000000000000151e-01
7.870000000000000329e-01
4.139999999999999791e-01
9.120000000000000329e-01
4.139999999999999791e-01
7.459999999999999964e-01
6.009999999999999787e-01
7.870000000000000329e-01
3.940000000000000169e-01
8.489999999999999769e-01
7.249999999999999778e-01
3.940000000000000169e-01
7.870000000000000329e-01
8.289999999999999591e-01
2.069999999999999896e-01
8.489999999999999769e-01
2.899999999999999800e-01
9.320000000000000506e-01
7.039999999999999591e-01
3.940000000000000169e-01
5.799999999999999600e-01
6.420000000000000151e-01
1.014999999999999902e+00
1.014999999999999902e+00
3.310000000000000164e-01
5.180000000000000160e-01
7.039999999999999591e-01
4.349999999999999978e-01
6.630000000000000338e-01
7.459999999999999964e-01
6.009999999999999787e-01
6.009999999999999787e-01
1.014999999999999902e+00
3.729999999999999982e-01
1.036000000000000032e+00
1.036000000000000032e+00
3.310000000000000164e-01
8.699999999999999956e-01
8.489999999999999769e-01
6.219999999999999973e-01
6.009999999999999787e-01
8.699999999999999956e-01
5.590000000000000524e-01
7.249999999999999778e-01
7.870000000000000329e-01
6.840000000000000524e-01
8.080000000000000515e-01
1.036000000000000032e+00
7.459999999999999964e-01
8.080000000000000515e-01
7.249999999999999778e-01
4.139999999999999791e-01
5.390000000000000346e-01
6.840000000000000524e-01
7.249999999999999778e-01
7.039999999999999591e-01
4.769999999999999796e-01
7.039999999999999591e-01
5.390000000000000346e-01
1.056999999999999940e+00
9.120000000000000329e-01
4.969999999999999973e-01
8.699999999999999956e-01
7.670000000000000151e-01
4.969999999999999973e-01
8.910000000000000142e-01
7.459999999999999964e-01
5.390000000000000346e-01
7.870000000000000329e-01
3.729999999999999982e-01
1.076999999999999957e+00
1.098000000000000087e+00
4.139999999999999791e-01
1.036000000000000032e+00
7.670000000000000151e-01
2.489999999999999991e-01
9.320000000000000506e-01
8.080000000000000515e-01
3.519999999999999796e-01
8.489999999999999769e-01
3.109999999999999987e-01
7.870000000000000329e-01
1.098000000000000087e+00
6.630000000000000338e-01
7.670000000000000151e-01
3.519999999999999796e-01
9.739999999999999769e-01
6.009999999999999787e-01
2.489999999999999991e-01
7.249999999999999778e-01
7.249999999999999778e-01
4.139999999999999791e-01
6.630000000000000338e-01
5.390000000000000346e-01
7.870000000000000329e-01
6.630000000000000338e-01
5.390000000000000346e-01
7.459999999999999964e-01
7.249999999999999778e-01
7.870000000000000329e-01
7.459999999999999964e-01
6.840000000000000524e-01
6.630000000000000338e-01
9.320000000000000506e-01
3.310000000000000164e-01
8.080000000000000515e-01
7.249999999999999778e-01
5.390000000000000346e-01
7.670000000000000151e-01
2.690000000000000169e-01
8.289999999999999591e-01
7.249999999999999778e-01
3.109999999999999987e-01
8.910000000000000142e-01
7.670000000000000151e-01
3.519999999999999796e-01
7.670000000000000151e-01
3.109999999999999987e-01
6.219999999999999973e-01
2.690000000000000169e-01
8.489999999999999769e-01
5.390000000000000346e-01
7.249999999999999778e-01
3.310000000000000164e-01
9.120000000000000329e-01
9.320000000000000506e-01
8.699999999999999956e-01
7.249999999999999778e-01
9.939999999999999947e-01
1.699000000000000066e+00
8.489999999999999769e-01
8.080000000000000515e-01
8.289999999999999591e-01
8.489999999999999769e-01
8.080000000000000515e-01
8.699999999999999956e-01
9.739999999999999769e-01
7.870000000000000329e-01
1.989000000000000101e+00
2.652000000000000135e+00
2.507000000000000117e+00
3.833000000000000185e+00
4.371999999999999886e+00
3.232000000000000206e+00
1.719999999999999973e+00
3.024999999999999911e+00
2.278999999999999915e+00
3.065999999999999837e+00
2.278999999999999915e+00
1.947999999999999954e+00
5.676999999999999602e+00
3.128000000000000114e+00
4.807000000000000384e+00
4.807000000000000384e+00
2.568999999999999950e+00
4.682000000000000384e+00
3.770999999999999908e+00
2.858999999999999986e+00
3.419000000000000039e+00
3.335999999999999854e+00
2.983000000000000096e+00
4.682000000000000384e+00
3.169999999999999929e+00
3.398000000000000131e+00
2.797000000000000153e+00
3.108000000000000096e+00
3.895000000000000018e+00
2.319999999999999840e+00
4.102000000000000313e+00
2.942000000000000171e+00
2.464999999999999858e+00
3.790999999999999925e+00
3.584000000000000075e+00
5.676999999999999602e+00
4.682000000000000384e+00
4.724000000000000199e+00
3.500999999999999890e+00
4.764999999999999680e+00
4.743999999999999773e+00
5.698000000000000398e+00
2.548000000000000043e+00
2.464999999999999858e+00
2.112999999999999989e+00
4.081000000000000405e+00
2.237999999999999989e+00
4.019000000000000128e+00
2.507000000000000117e+00
1.782000000000000028e+00
3.419000000000000039e+00
2.775999999999999801e+00
4.392000000000000348e+00
2.174999999999999822e+00
2.942000000000000171e+00
2.858999999999999986e+00
2.507000000000000117e+00
1.491999999999999993e+00
2.920999999999999819e+00
1.201999999999999957e+00
1.491999999999999993e+00
2.673000000000000043e+00
1.284999999999999920e+00
1.594999999999999973e+00
1.409000000000000030e+00
7.249999999999999778e-01
1.056999999999999940e+00
1.346999999999999975e+00
2.341000000000000192e+00
9.939999999999999947e-01
1.657000000000000028e+00
1.076999999999999957e+00
8.289999999999999591e-01
1.409000000000000030e+00
1.594999999999999973e+00
1.429999999999999938e+00
1.264000000000000012e+00
1.139999999999999902e+00
1.554000000000000048e+00
1.264000000000000012e+00
1.221999999999999975e+00
2.196000000000000174e+00
8.489999999999999769e-01
1.014999999999999902e+00
1.554000000000000048e+00
2.217000000000000082e+00
2.258000000000000007e+00
5.842999999999999972e+00
2.713999999999999968e+00
3.564000000000000057e+00
3.024999999999999911e+00
2.092999999999999972e+00
2.278999999999999915e+00
1.409000000000000030e+00
2.299999999999999822e+00
1.221999999999999975e+00
3.833000000000000185e+00
4.144000000000000128e+00
4.931000000000000050e+00
3.335999999999999854e+00
1.036000000000000032e+00
1.449999999999999900e-01
2.280000000000000082e-01
1.346999999999999975e+00
7.022999999999999687e+00
7.977000000000000313e+00
1.719999999999999973e+00
4.163999999999999702e+00
3.956999999999999851e+00
5.054999999999999716e+00
3.253000000000000114e+00
3.459999999999999964e+00
3.210999999999999854e+00
2.838000000000000078e+00
2.879999999999999893e+00
4.557999999999999829e+00
4.826999999999999957e+00
1.006900000000000084e+01
3.895000000000000018e+00
4.661999999999999922e+00
4.578999999999999737e+00
5.551999999999999602e+00
5.511000000000000121e+00
6.485000000000000320e+00
6.650999999999999801e+00
4.993000000000000327e+00
4.517000000000000348e+00
3.355999999999999872e+00
3.811999999999999833e+00
2.673000000000000043e+00
3.645999999999999908e+00
3.480999999999999872e+00
3.811999999999999833e+00
2.528000000000000025e+00
2.900999999999999801e+00
1.947999999999999954e+00
4.703000000000000291e+00
4.889999999999999680e+00
2.775999999999999801e+00
4.474999999999999645e+00
1.471000000000000085e+00
1.471000000000000085e+00
2.609999999999999876e+00
3.978000000000000203e+00
3.253000000000000114e+00
2.403000000000000025e+00
6.420000000000000151e-01
3.109999999999999987e-01
1.014999999999999902e+00
4.769999999999999796e-01
2.341000000000000192e+00
2.486000000000000210e+00
1.366999999999999993e+00
3.940000000000000169e-01
6.420000000000000151e-01
2.092999999999999972e+00
1.554000000000000048e+00
1.098000000000000087e+00
1.366999999999999993e+00
9.739999999999999769e-01
1.284999999999999920e+00
1.181000000000000050e+00
1.243000000000000105e+00
1.574999999999999956e+00
1.574999999999999956e+00
9.939999999999999947e-01
1.118999999999999995e+00
7.249999999999999778e-01
1.512000000000000011e+00
1.221999999999999975e+00
1.885000000000000009e+00
4.227000000000000313e+00
4.123000000000000220e+00
2.444999999999999840e+00
3.750000000000000000e+00
1.967999999999999972e+00
1.574999999999999956e+00
1.409000000000000030e+00
9.320000000000000506e-01
1.284999999999999920e+00
6.009999999999999787e-01
1.616000000000000103e+00
1.387999999999999901e+00
1.243000000000000105e+00
1.532999999999999918e+00
1.181000000000000050e+00
1.014999999999999902e+00
1.284999999999999920e+00
1.989000000000000101e+00
1.036000000000000032e+00
1.139999999999999902e+00
1.574999999999999956e+00
1.491999999999999993e+00
1.532999999999999918e+00
1.449999999999999956e+00
1.739999999999999991e+00
1.594999999999999973e+00
2.217000000000000082e+00
8.080000000000000515e-01
1.387999999999999901e+00
1.076999999999999957e+00
1.326000000000000068e+00
1.387999999999999901e+00
1.387999999999999901e+00
9.939999999999999947e-01
1.491999999999999993e+00
1.637000000000000011e+00
1.181000000000000050e+00
9.939999999999999947e-01
1.159999999999999920e+00
1.554000000000000048e+00
1.637000000000000011e+00
1.989000000000000101e+00
5.799999999999999600e-01
1.118999999999999995e+00
1.554000000000000048e+00
7.459999999999999964e-01
1.719999999999999973e+00
1.739999999999999991e+00
1.532999999999999918e+00
2.444999999999999840e+00
8.489999999999999769e-01
1.677999999999999936e+00
8.910000000000000142e-01
2.051000000000000156e+00
9.739999999999999769e-01
8.289999999999999591e-01
1.056999999999999940e+00
1.326000000000000068e+00
1.554000000000000048e+00
1.181000000000000050e+00
1.512000000000000011e+00
5.180000000000000160e-01
7.670000000000000151e-01
2.072000000000000064e+00
1.264000000000000012e+00
1.947999999999999954e+00
1.927000000000000046e+00
1.449999999999999956e+00
1.471000000000000085e+00
1.264000000000000012e+00
1.159999999999999920e+00
8.910000000000000142e-01
8.699999999999999956e-01
1.098000000000000087e+00
1.243000000000000105e+00
1.491999999999999993e+00
8.910000000000000142e-01
1.739999999999999991e+00
1.304999999999999938e+00
1.366999999999999993e+00
1.491999999999999993e+00
9.939999999999999947e-01
8.080000000000000515e-01
1.243000000000000105e+00
1.346999999999999975e+00
1.014999999999999902e+00
1.449999999999999956e+00
1.326000000000000068e+00
1.201999999999999957e+00
1.036000000000000032e+00
1.449999999999999956e+00
9.320000000000000506e-01
1.056999999999999940e+00
1.284999999999999920e+00
1.449999999999999956e+00
1.449999999999999956e+00
1.366999999999999993e+00
5.390000000000000346e-01
1.387999999999999901e+00
1.181000000000000050e+00
1.264000000000000012e+00
1.429999999999999938e+00
1.118999999999999995e+00
2.383000000000000007e+00
1.657000000000000028e+00
9.120000000000000329e-01
7.249999999999999778e-01
3.519999999999999796e-01
1.346999999999999975e+00
1.139999999999999902e+00
9.120000000000000329e-01
1.098000000000000087e+00
1.243000000000000105e+00
9.120000000000000329e-01
2.092999999999999972e+00
1.056999999999999940e+00
1.264000000000000012e+00
1.014999999999999902e+00
5.180000000000000160e-01
7.249999999999999778e-01
1.304999999999999938e+00
1.159999999999999920e+00
7.459999999999999964e-01
1.181000000000000050e+00
1.201999999999999957e+00
1.491999999999999993e+00
1.221999999999999975e+00
1.076999999999999957e+00
9.939999999999999947e-01
7.870000000000000329e-01
8.080000000000000515e-01
8.489999999999999769e-01
9.120000000000000329e-01
1.616000000000000103e+00
9.739999999999999769e-01
1.429999999999999938e+00
9.529999999999999583e-01
1.326000000000000068e+00
9.939999999999999947e-01
6.840000000000000524e-01
1.181000000000000050e+00
7.670000000000000151e-01
1.594999999999999973e+00
9.939999999999999947e-01
1.159999999999999920e+00
1.699000000000000066e+00
1.304999999999999938e+00
1.409000000000000030e+00
1.574999999999999956e+00
1.243000000000000105e+00
1.264000000000000012e+00
1.076999999999999957e+00
1.387999999999999901e+00
9.320000000000000506e-01
1.056999999999999940e+00
1.159999999999999920e+00
1.181000000000000050e+00
1.326000000000000068e+00
1.264000000000000012e+00
1.409000000000000030e+00
9.939999999999999947e-01
8.910000000000000142e-01
9.529999999999999583e-01
1.181000000000000050e+00
8.080000000000000515e-01
1.677999999999999936e+00
1.264000000000000012e+00
1.014999999999999902e+00
9.320000000000000506e-01
8.699999999999999956e-01
1.014999999999999902e+00
1.056999999999999940e+00
4.560000000000000164e-01
7.670000000000000151e-01
9.739999999999999769e-01
8.080000000000000515e-01
1.118999999999999995e+00
1.264000000000000012e+00
8.080000000000000515e-01
7.459999999999999964e-01
1.677999999999999936e+00
1.076999999999999957e+00
1.118999999999999995e+00
9.320000000000000506e-01
8.080000000000000515e-01
9.739999999999999769e-01
1.139999999999999902e+00
7.670000000000000151e-01
1.036000000000000032e+00
8.080000000000000515e-01
8.489999999999999769e-01
9.939999999999999947e-01
1.076999999999999957e+00
9.529999999999999583e-01
1.098000000000000087e+00
1.264000000000000012e+00
8.699999999999999956e-01
1.056999999999999940e+00
1.056999999999999940e+00
8.080000000000000515e-01
1.346999999999999975e+00
1.014999999999999902e+00
1.699000000000000066e+00
7.039999999999999591e-01
1.098000000000000087e+00
1.346999999999999975e+00
1.181000000000000050e+00
8.489999999999999769e-01
1.098000000000000087e+00
9.939999999999999947e-01
1.616000000000000103e+00
8.080000000000000515e-01
9.939999999999999947e-01
1.387999999999999901e+00
9.320000000000000506e-01
1.326000000000000068e+00
7.039999999999999591e-01
1.159999999999999920e+00
1.076999999999999957e+00
8.910000000000000142e-01
9.739999999999999769e-01
9.320000000000000506e-01
7.249999999999999778e-01
8.080000000000000515e-01
9.320000000000000506e-01
8.289999999999999591e-01
7.459999999999999964e-01
8.080000000000000515e-01
1.449999999999999956e+00
1.201999999999999957e+00
1.159999999999999920e+00
8.910000000000000142e-01
1.098000000000000087e+00
7.039999999999999591e-01
8.910000000000000142e-01
9.939999999999999947e-01
1.326000000000000068e+00
9.529999999999999583e-01
7.039999999999999591e-01
1.098000000000000087e+00
1.532999999999999918e+00
8.080000000000000515e-01
1.118999999999999995e+00
1.574999999999999956e+00
8.080000000000000515e-01
1.491999999999999993e+00
1.243000000000000105e+00
6.840000000000000524e-01
1.594999999999999973e+00
9.939999999999999947e-01
1.304999999999999938e+00
1.782000000000000028e+00
3.376999999999999780e+00
3.915999999999999925e+00
4.330000000000000071e+00
4.599000000000000199e+00
3.439000000000000057e+00
2.609999999999999876e+00
3.294000000000000039e+00
3.790999999999999925e+00
2.734999999999999876e+00
2.818000000000000060e+00
4.993000000000000327e+00
3.128000000000000114e+00
2.341000000000000192e+00
4.163999999999999702e+00
4.951999999999999957e+00
3.273000000000000131e+00
4.764999999999999680e+00
3.004000000000000004e+00
4.123000000000000220e+00
2.983000000000000096e+00
3.004000000000000004e+00
2.652000000000000135e+00
2.319999999999999840e+00
1.699000000000000066e+00
3.833000000000000185e+00
1.616000000000000103e+00
2.051000000000000156e+00
1.782000000000000028e+00
7.670000000000000151e-01
1.802000000000000046e+00
1.637000000000000011e+00
1.512000000000000011e+00
1.802000000000000046e+00
2.133999999999999897e+00
2.673000000000000043e+00
1.366999999999999993e+00
1.947999999999999954e+00
2.548000000000000043e+00
1.594999999999999973e+00
2.486000000000000210e+00
1.429999999999999938e+00
2.341000000000000192e+00
2.154999999999999805e+00
2.133999999999999897e+00
2.609999999999999876e+00
2.092999999999999972e+00
2.051000000000000156e+00
1.449999999999999956e+00
2.444999999999999840e+00
1.326000000000000068e+00
1.387999999999999901e+00
1.594999999999999973e+00
1.864999999999999991e+00
1.284999999999999920e+00
2.133999999999999897e+00
1.947999999999999954e+00
1.471000000000000085e+00
1.760999999999999899e+00
1.905999999999999917e+00
2.383000000000000007e+00
3.045999999999999819e+00
1.927000000000000046e+00
1.885000000000000009e+00
1.326000000000000068e+00
1.802000000000000046e+00
1.657000000000000028e+00
2.362000000000000099e+00
1.822999999999999954e+00
2.299999999999999822e+00
2.464999999999999858e+00
1.927000000000000046e+00
1.885000000000000009e+00
1.512000000000000011e+00
2.237999999999999989e+00
1.782000000000000028e+00
1.159999999999999920e+00
1.471000000000000085e+00
1.346999999999999975e+00
1.532999999999999918e+00
2.112999999999999989e+00
1.594999999999999973e+00
1.429999999999999938e+00
1.366999999999999993e+00
2.112999999999999989e+00
1.159999999999999920e+00
2.092999999999999972e+00
1.927000000000000046e+00
1.429999999999999938e+00
2.258000000000000007e+00
1.657000000000000028e+00
1.637000000000000011e+00
1.760999999999999899e+00
2.693000000000000060e+00
2.609999999999999876e+00
2.009999999999999787e+00
1.387999999999999901e+00
1.159999999999999920e+00
1.221999999999999975e+00
1.574999999999999956e+00
1.532999999999999918e+00
9.939999999999999947e-01
1.927000000000000046e+00
2.154999999999999805e+00
1.947999999999999954e+00
1.346999999999999975e+00
1.802000000000000046e+00
1.967999999999999972e+00
1.181000000000000050e+00
1.677999999999999936e+00
1.159999999999999920e+00
1.118999999999999995e+00
1.844000000000000083e+00
1.822999999999999954e+00
1.471000000000000085e+00
1.304999999999999938e+00
8.910000000000000142e-01
1.989000000000000101e+00
1.284999999999999920e+00
1.989000000000000101e+00
1.927000000000000046e+00
1.967999999999999972e+00
1.076999999999999957e+00
1.657000000000000028e+00
1.989000000000000101e+00
1.429999999999999938e+00
1.284999999999999920e+00
2.258000000000000007e+00
1.699000000000000066e+00
9.739999999999999769e-01
2.278999999999999915e+00
1.346999999999999975e+00
1.616000000000000103e+00
1.677999999999999936e+00
1.409000000000000030e+00
1.532999999999999918e+00
1.491999999999999993e+00
1.677999999999999936e+00
1.574999999999999956e+00
1.637000000000000011e+00
1.264000000000000012e+00
2.278999999999999915e+00
1.677999999999999936e+00
1.181000000000000050e+00
1.637000000000000011e+00
1.284999999999999920e+00
1.139999999999999902e+00
1.802000000000000046e+00
1.429999999999999938e+00
2.548000000000000043e+00
1.677999999999999936e+00
1.885000000000000009e+00
1.760999999999999899e+00
1.719999999999999973e+00
1.471000000000000085e+00
1.739999999999999991e+00
2.092999999999999972e+00
2.464999999999999858e+00
1.036000000000000032e+00
1.221999999999999975e+00
2.072000000000000064e+00
1.905999999999999917e+00
1.076999999999999957e+00
1.449999999999999956e+00
2.174999999999999822e+00
1.512000000000000011e+00
1.885000000000000009e+00
1.637000000000000011e+00
1.885000000000000009e+00
1.574999999999999956e+00
1.699000000000000066e+00
1.554000000000000048e+00
1.822999999999999954e+00
1.927000000000000046e+00
1.699000000000000066e+00
2.568999999999999950e+00
1.637000000000000011e+00
1.118999999999999995e+00
2.362000000000000099e+00
2.548000000000000043e+00
5.325000000000000178e+00
4.847999999999999865e+00
4.661999999999999922e+00
3.004000000000000004e+00
3.543000000000000149e+00
2.755999999999999783e+00
3.190999999999999837e+00
2.713999999999999968e+00
3.149000000000000021e+00
3.770999999999999908e+00
1.967999999999999972e+00
3.294000000000000039e+00
2.072000000000000064e+00
1.905999999999999917e+00
2.237999999999999989e+00
2.133999999999999897e+00
1.927000000000000046e+00
1.947999999999999954e+00
3.750000000000000000e+00
2.486000000000000210e+00
2.818000000000000060e+00
1.885000000000000009e+00
3.024999999999999911e+00
2.713999999999999968e+00
2.237999999999999989e+00
2.444999999999999840e+00
2.775999999999999801e+00
2.507000000000000117e+00
3.169999999999999929e+00
2.486000000000000210e+00
1.905999999999999917e+00
2.528000000000000025e+00
1.719999999999999973e+00
1.927000000000000046e+00
1.989000000000000101e+00
2.444999999999999840e+00
2.486000000000000210e+00
1.719999999999999973e+00
1.782000000000000028e+00
2.755999999999999783e+00
2.029999999999999805e+00
2.009999999999999787e+00
1.989000000000000101e+00
3.108000000000000096e+00
1.947999999999999954e+00
1.905999999999999917e+00
2.942000000000000171e+00
3.273000000000000131e+00
3.459999999999999964e+00
3.500999999999999890e+00
2.383000000000000007e+00
3.480999999999999872e+00
2.818000000000000060e+00
2.196000000000000174e+00
2.609999999999999876e+00
3.439000000000000057e+00
2.838000000000000078e+00
2.051000000000000156e+00
2.423999999999999932e+00
1.864999999999999991e+00
2.154999999999999805e+00
3.355999999999999872e+00
2.092999999999999972e+00
2.528000000000000025e+00
1.616000000000000103e+00
2.423999999999999932e+00
1.739999999999999991e+00
2.403000000000000025e+00
1.739999999999999991e+00
2.486000000000000210e+00
2.092999999999999972e+00
1.864999999999999991e+00
2.900999999999999801e+00
1.802000000000000046e+00
1.677999999999999936e+00
2.652000000000000135e+00
1.967999999999999972e+00
2.154999999999999805e+00
2.423999999999999932e+00
1.594999999999999973e+00
1.739999999999999991e+00
2.838000000000000078e+00
1.657000000000000028e+00
2.818000000000000060e+00
2.112999999999999989e+00
1.512000000000000011e+00
2.507000000000000117e+00
2.154999999999999805e+00
2.341000000000000192e+00
1.616000000000000103e+00
2.258000000000000007e+00
2.775999999999999801e+00
1.822999999999999954e+00
2.403000000000000025e+00
2.403000000000000025e+00
2.133999999999999897e+00
2.444999999999999840e+00
1.264000000000000012e+00
2.464999999999999858e+00
2.174999999999999822e+00
1.760999999999999899e+00
2.775999999999999801e+00
1.927000000000000046e+00
1.927000000000000046e+00
2.775999999999999801e+00
1.782000000000000028e+00
1.760999999999999899e+00
1.864999999999999991e+00
1.967999999999999972e+00
1.947999999999999954e+00
1.760999999999999899e+00
1.677999999999999936e+00
2.133999999999999897e+00
1.284999999999999920e+00
2.009999999999999787e+00
1.802000000000000046e+00
1.782000000000000028e+00
2.568999999999999950e+00
1.409000000000000030e+00
1.989000000000000101e+00
1.760999999999999899e+00
2.174999999999999822e+00
2.196000000000000174e+00
1.719999999999999973e+00
2.029999999999999805e+00
2.299999999999999822e+00
1.844000000000000083e+00
1.554000000000000048e+00
2.217000000000000082e+00
1.491999999999999993e+00
1.637000000000000011e+00
1.947999999999999954e+00
1.574999999999999956e+00
2.568999999999999950e+00
2.630999999999999783e+00
1.864999999999999991e+00
2.464999999999999858e+00
2.341000000000000192e+00
1.905999999999999917e+00
2.051000000000000156e+00
2.072000000000000064e+00
1.304999999999999938e+00
2.652000000000000135e+00
1.719999999999999973e+00
1.657000000000000028e+00
2.900999999999999801e+00
1.739999999999999991e+00
1.449999999999999956e+00
2.362000000000000099e+00
2.383000000000000007e+00
1.326000000000000068e+00
1.927000000000000046e+00
1.139999999999999902e+00
2.029999999999999805e+00
2.258000000000000007e+00
2.258000000000000007e+00
2.858999999999999986e+00
1.905999999999999917e+00
2.818000000000000060e+00
1.782000000000000028e+00
2.920999999999999819e+00
2.299999999999999822e+00
1.471000000000000085e+00
3.294000000000000039e+00
1.243000000000000105e+00
2.072000000000000064e+00
1.739999999999999991e+00
2.423999999999999932e+00
1.844000000000000083e+00
1.594999999999999973e+00
1.677999999999999936e+00
1.657000000000000028e+00
1.637000000000000011e+00
2.237999999999999989e+00
2.154999999999999805e+00
2.174999999999999822e+00
1.637000000000000011e+00
2.299999999999999822e+00
1.905999999999999917e+00
1.657000000000000028e+00
1.657000000000000028e+00
2.112999999999999989e+00
2.818000000000000060e+00
2.217000000000000082e+00
1.927000000000000046e+00
1.159999999999999920e+00
1.927000000000000046e+00
2.217000000000000082e+00
2.942000000000000171e+00
2.423999999999999932e+00
2.673000000000000043e+00
1.989000000000000101e+00
1.739999999999999991e+00
2.133999999999999897e+00
3.128000000000000114e+00
2.112999999999999989e+00
2.963000000000000078e+00
1.512000000000000011e+00
2.196000000000000174e+00
1.719999999999999973e+00
3.128000000000000114e+00
2.713999999999999968e+00
3.128000000000000114e+00
1.760999999999999899e+00
1.947999999999999954e+00
2.507000000000000117e+00
2.630999999999999783e+00
2.029999999999999805e+00
2.879999999999999893e+00
2.383000000000000007e+00
2.963000000000000078e+00
1.927000000000000046e+00
1.927000000000000046e+00
1.657000000000000028e+00
2.589999999999999858e+00
3.314999999999999947e+00
3.169999999999999929e+00
2.009999999999999787e+00
2.319999999999999840e+00
2.133999999999999897e+00
1.989000000000000101e+00
2.548000000000000043e+00
2.196000000000000174e+00
1.864999999999999991e+00
2.403000000000000025e+00
2.383000000000000007e+00
2.589999999999999858e+00
2.112999999999999989e+00
1.760999999999999899e+00
2.403000000000000025e+00
2.362000000000000099e+00
1.554000000000000048e+00
2.299999999999999822e+00
1.947999999999999954e+00
1.699000000000000066e+00
2.548000000000000043e+00
2.217000000000000082e+00
1.719999999999999973e+00
2.112999999999999989e+00
1.760999999999999899e+00
2.029999999999999805e+00
1.864999999999999991e+00
2.029999999999999805e+00
2.072000000000000064e+00
1.885000000000000009e+00
1.905999999999999917e+00
2.589999999999999858e+00
1.782000000000000028e+00
1.989000000000000101e+00
2.713999999999999968e+00
1.719999999999999973e+00
1.927000000000000046e+00
1.864999999999999991e+00
1.989000000000000101e+00
1.885000000000000009e+00
1.512000000000000011e+00
1.927000000000000046e+00
2.092999999999999972e+00
1.677999999999999936e+00
2.133999999999999897e+00
1.554000000000000048e+00
1.739999999999999991e+00
2.775999999999999801e+00
1.822999999999999954e+00
1.864999999999999991e+00
2.258000000000000007e+00
2.092999999999999972e+00
2.444999999999999840e+00
2.217000000000000082e+00
2.528000000000000025e+00
2.174999999999999822e+00
2.963000000000000078e+00
2.630999999999999783e+00
1.989000000000000101e+00
2.609999999999999876e+00
2.051000000000000156e+00
2.507000000000000117e+00
2.072000000000000064e+00
1.657000000000000028e+00
1.491999999999999993e+00
1.822999999999999954e+00
1.947999999999999954e+00
2.258000000000000007e+00
1.574999999999999956e+00
1.657000000000000028e+00
1.967999999999999972e+00
2.237999999999999989e+00
1.554000000000000048e+00
2.734999999999999876e+00
2.589999999999999858e+00
1.326000000000000068e+00
2.174999999999999822e+00
1.927000000000000046e+00
1.264000000000000012e+00
1.905999999999999917e+00
2.423999999999999932e+00
1.429999999999999938e+00
2.423999999999999932e+00
1.326000000000000068e+00
1.802000000000000046e+00
1.637000000000000011e+00
2.818000000000000060e+00
1.822999999999999954e+00
1.822999999999999954e+00
1.346999999999999975e+00
2.383000000000000007e+00
1.449999999999999956e+00
2.383000000000000007e+00
1.264000000000000012e+00
2.673000000000000043e+00
1.532999999999999918e+00
2.196000000000000174e+00
2.133999999999999897e+00
2.112999999999999989e+00
2.051000000000000156e+00
2.217000000000000082e+00
2.444999999999999840e+00
2.383000000000000007e+00
1.657000000000000028e+00
2.362000000000000099e+00
1.449999999999999956e+00
1.947999999999999954e+00
2.630999999999999783e+00
1.927000000000000046e+00
2.278999999999999915e+00
2.029999999999999805e+00
1.864999999999999991e+00
1.802000000000000046e+00
2.029999999999999805e+00
1.554000000000000048e+00
3.149000000000000021e+00
2.154999999999999805e+00
1.739999999999999991e+00
1.574999999999999956e+00
1.181000000000000050e+00
1.699000000000000066e+00
1.637000000000000011e+00
2.174999999999999822e+00
2.174999999999999822e+00
1.201999999999999957e+00
1.616000000000000103e+00
2.029999999999999805e+00
1.387999999999999901e+00
1.637000000000000011e+00
1.366999999999999993e+00
1.616000000000000103e+00
1.491999999999999993e+00
2.154999999999999805e+00
1.719999999999999973e+00
1.885000000000000009e+00
2.858999999999999986e+00
1.491999999999999993e+00
1.532999999999999918e+00
1.677999999999999936e+00
1.637000000000000011e+00
2.133999999999999897e+00
1.284999999999999920e+00
1.739999999999999991e+00
1.782000000000000028e+00
1.989000000000000101e+00
1.822999999999999954e+00
1.409000000000000030e+00
1.201999999999999957e+00
2.196000000000000174e+00
1.739999999999999991e+00
1.449999999999999956e+00
2.362000000000000099e+00
1.181000000000000050e+00
1.927000000000000046e+00
1.657000000000000028e+00
1.532999999999999918e+00
1.905999999999999917e+00
1.905999999999999917e+00
2.237999999999999989e+00
1.989000000000000101e+00
2.444999999999999840e+00
2.362000000000000099e+00
1.491999999999999993e+00
1.616000000000000103e+00
1.739999999999999991e+00
2.174999999999999822e+00
1.967999999999999972e+00
2.112999999999999989e+00
1.864999999999999991e+00
1.802000000000000046e+00
2.319999999999999840e+00
1.927000000000000046e+00
2.133999999999999897e+00
2.009999999999999787e+00
1.594999999999999973e+00
1.844000000000000083e+00
1.532999999999999918e+00
1.782000000000000028e+00
1.346999999999999975e+00
1.221999999999999975e+00
2.383000000000000007e+00
1.760999999999999899e+00
1.574999999999999956e+00
2.029999999999999805e+00
1.905999999999999917e+00
1.885000000000000009e+00
1.616000000000000103e+00
1.616000000000000103e+00
1.927000000000000046e+00
1.677999999999999936e+00
1.429999999999999938e+00
1.159999999999999920e+00
1.822999999999999954e+00
1.677999999999999936e+00
2.299999999999999822e+00
1.967999999999999972e+00
1.782000000000000028e+00
2.029999999999999805e+00
1.802000000000000046e+00
2.278999999999999915e+00
2.072000000000000064e+00
1.637000000000000011e+00
1.098000000000000087e+00
2.383000000000000007e+00
9.320000000000000506e-01
2.009999999999999787e+00
2.029999999999999805e+00
1.574999999999999956e+00
2.174999999999999822e+00
2.009999999999999787e+00
2.174999999999999822e+00
2.072000000000000064e+00
1.677999999999999936e+00
1.574999999999999956e+00
6.219999999999999973e-01
8.489999999999999769e-01
1.760999999999999899e+00
1.760999999999999899e+00
5.590000000000000524e-01
7.249999999999999778e-01
5.390000000000000346e-01
2.280000000000000082e-01
1.859999999999999987e-01
3.310000000000000164e-01
2.029999999999999805e+00
1.264000000000000012e+00
8.489999999999999769e-01
1.844000000000000083e+00
1.387999999999999901e+00
8.289999999999999591e-01
4.560000000000000164e-01
2.690000000000000169e-01
2.069999999999999896e-01
3.310000000000000164e-01
8.289999999999999591e-01
1.118999999999999995e+00
8.699999999999999956e-01
1.181000000000000050e+00
1.304999999999999938e+00
3.310000000000000164e-01
6.420000000000000151e-01
1.304999999999999938e+00
2.319999999999999840e+00
4.560000000000000164e-01
1.532999999999999918e+00
2.589999999999999858e+00
1.947999999999999954e+00
2.652000000000000135e+00
2.196000000000000174e+00
1.181000000000000050e+00
2.154999999999999805e+00
2.051000000000000156e+00
1.387999999999999901e+00
8.910000000000000142e-01
1.346999999999999975e+00
1.118999999999999995e+00
1.660000000000000087e-01
1.221999999999999975e+00
8.699999999999999956e-01
1.574999999999999956e+00
1.905999999999999917e+00
2.072000000000000064e+00
2.237999999999999989e+00
9.320000000000000506e-01
4.139999999999999791e-01
1.304999999999999938e+00
2.507000000000000117e+00
1.760999999999999899e+00
5.390000000000000346e-01
1.947999999999999954e+00
1.512000000000000011e+00
1.594999999999999973e+00
1.366999999999999993e+00
2.092999999999999972e+00
9.529999999999999583e-01
2.489999999999999991e-01
1.802000000000000046e+00
2.900999999999999801e+00
2.092999999999999972e+00
1.719999999999999973e+00
1.118999999999999995e+00
6.219999999999999973e-01
1.264000000000000012e+00
2.092999999999999972e+00
1.657000000000000028e+00
2.507000000000000117e+00
1.387999999999999901e+00
2.051000000000000156e+00
2.983000000000000096e+00
2.568999999999999950e+00
2.299999999999999822e+00
1.967999999999999972e+00
1.429999999999999938e+00
2.548000000000000043e+00
1.885000000000000009e+00
1.098000000000000087e+00
2.154999999999999805e+00
1.076999999999999957e+00
1.346999999999999975e+00
1.844000000000000083e+00
1.844000000000000083e+00
2.652000000000000135e+00
1.699000000000000066e+00
1.118999999999999995e+00
2.299999999999999822e+00
2.797000000000000153e+00
1.243000000000000105e+00
2.029999999999999805e+00
2.528000000000000025e+00
2.258000000000000007e+00
3.335999999999999854e+00
1.139999999999999902e+00
2.900999999999999801e+00
3.169999999999999929e+00
2.942000000000000171e+00
1.927000000000000046e+00
2.341000000000000192e+00
1.802000000000000046e+00
2.693000000000000060e+00
2.464999999999999858e+00
1.657000000000000028e+00
3.439000000000000057e+00
1.719999999999999973e+00
2.900999999999999801e+00
2.838000000000000078e+00
2.341000000000000192e+00
1.905999999999999917e+00
2.362000000000000099e+00
2.464999999999999858e+00
1.574999999999999956e+00
2.775999999999999801e+00
2.112999999999999989e+00
2.797000000000000153e+00
2.051000000000000156e+00
2.858999999999999986e+00
3.770999999999999908e+00
3.419000000000000039e+00
2.920999999999999819e+00
4.910000000000000142e+00
3.729000000000000092e+00
3.273000000000000131e+00
1.719999999999999973e+00
2.383000000000000007e+00
1.657000000000000028e+00
2.009999999999999787e+00
3.564000000000000057e+00
2.963000000000000078e+00
2.775999999999999801e+00
2.278999999999999915e+00
3.087000000000000188e+00
5.261999999999999567e+00
5.116999999999999993e+00
4.309000000000000163e+00
2.154999999999999805e+00
3.128000000000000114e+00
1.885000000000000009e+00
2.713999999999999968e+00
3.087000000000000188e+00
3.729000000000000092e+00
2.403000000000000025e+00
3.709000000000000075e+00
4.826999999999999957e+00
3.956999999999999851e+00
4.847999999999999865e+00
4.350999999999999979e+00
2.838000000000000078e+00
3.108000000000000096e+00
3.253000000000000114e+00
1.989000000000000101e+00
3.854000000000000092e+00
3.398000000000000131e+00
2.858999999999999986e+00
3.169999999999999929e+00
1.822999999999999954e+00
3.750000000000000000e+00
3.604999999999999982e+00
3.128000000000000114e+00
2.797000000000000153e+00
3.024999999999999911e+00
4.661999999999999922e+00
2.299999999999999822e+00
2.734999999999999876e+00
3.709000000000000075e+00
3.169999999999999929e+00
3.190999999999999837e+00
3.108000000000000096e+00
2.029999999999999805e+00
2.464999999999999858e+00
2.319999999999999840e+00
3.398000000000000131e+00
2.755999999999999783e+00
2.797000000000000153e+00
2.362000000000000099e+00
2.362000000000000099e+00
1.616000000000000103e+00
2.444999999999999840e+00
2.858999999999999986e+00
2.818000000000000060e+00
3.314999999999999947e+00
5.035000000000000142e+00
9.739999999999999769e-01
2.630999999999999783e+00
3.688000000000000167e+00
1.304999999999999938e+00
1.677999999999999936e+00
1.947999999999999954e+00
3.149000000000000021e+00
3.004000000000000004e+00
1.699000000000000066e+00
3.310000000000000164e-01
4.081000000000000405e+00
3.480999999999999872e+00
1.264000000000000012e+00
1.739999999999999991e+00
1.512000000000000011e+00
1.637000000000000011e+00
1.719999999999999973e+00
1.885000000000000009e+00
2.258000000000000007e+00
1.471000000000000085e+00
7.039999999999999591e-01
3.521999999999999797e+00
2.652000000000000135e+00
2.900999999999999801e+00
3.376999999999999780e+00
1.326000000000000068e+00
9.939999999999999947e-01
1.677999999999999936e+00
3.335999999999999854e+00
3.376999999999999780e+00
1.947999999999999954e+00
7.249999999999999778e-01
2.630999999999999783e+00
2.609999999999999876e+00
2.963000000000000078e+00
1.326000000000000068e+00
2.568999999999999950e+00
2.444999999999999840e+00
2.112999999999999989e+00
1.637000000000000011e+00
2.858999999999999986e+00
1.387999999999999901e+00
1.616000000000000103e+00
1.574999999999999956e+00
2.444999999999999840e+00
1.719999999999999973e+00
1.076999999999999957e+00
1.491999999999999993e+00
2.072000000000000064e+00
6.840000000000000524e-01
3.439000000000000057e+00
3.355999999999999872e+00
2.154999999999999805e+00
3.169999999999999929e+00
2.133999999999999897e+00
2.051000000000000156e+00
1.967999999999999972e+00
2.051000000000000156e+00
2.423999999999999932e+00
8.699999999999999956e-01
2.029999999999999805e+00
2.609999999999999876e+00
1.471000000000000085e+00
2.009999999999999787e+00
2.112999999999999989e+00
2.217000000000000082e+00
3.065999999999999837e+00
1.221999999999999975e+00
1.554000000000000048e+00
1.802000000000000046e+00
1.967999999999999972e+00
1.864999999999999991e+00
2.568999999999999950e+00
2.734999999999999876e+00
1.927000000000000046e+00
2.092999999999999972e+00
3.045999999999999819e+00
2.444999999999999840e+00
9.739999999999999769e-01
2.486000000000000210e+00
3.065999999999999837e+00
2.174999999999999822e+00
2.528000000000000025e+00
2.630999999999999783e+00
2.652000000000000135e+00
2.092999999999999972e+00
3.419000000000000039e+00
2.818000000000000060e+00
3.128000000000000114e+00
2.797000000000000153e+00
1.802000000000000046e+00
2.299999999999999822e+00
1.885000000000000009e+00
2.444999999999999840e+00
1.989000000000000101e+00
2.237999999999999989e+00
1.594999999999999973e+00
1.760999999999999899e+00
1.989000000000000101e+00
1.885000000000000009e+00
1.782000000000000028e+00
2.319999999999999840e+00
1.905999999999999917e+00
2.258000000000000007e+00
2.920999999999999819e+00
2.797000000000000153e+00
1.864999999999999991e+00
1.885000000000000009e+00
2.464999999999999858e+00
2.609999999999999876e+00
1.429999999999999938e+00
1.864999999999999991e+00
2.486000000000000210e+00
3.045999999999999819e+00
9.529999999999999583e-01
2.920999999999999819e+00
2.609999999999999876e+00
2.444999999999999840e+00
2.486000000000000210e+00
1.760999999999999899e+00
2.983000000000000096e+00
4.371999999999999886e+00
2.568999999999999950e+00
2.589999999999999858e+00
4.620000000000000107e+00
5.200000000000000178e+00
3.398000000000000131e+00
3.688000000000000167e+00
3.108000000000000096e+00
2.630999999999999783e+00
2.237999999999999989e+00
2.258000000000000007e+00
3.355999999999999872e+00
3.149000000000000021e+00
3.335999999999999854e+00
3.978000000000000203e+00
2.133999999999999897e+00
4.764999999999999680e+00
3.999000000000000110e+00
2.444999999999999840e+00
2.775999999999999801e+00
2.734999999999999876e+00
3.355999999999999872e+00
4.184999999999999609e+00
2.278999999999999915e+00
3.210999999999999854e+00
2.486000000000000210e+00
2.112999999999999989e+00
2.072000000000000064e+00
2.818000000000000060e+00
2.072000000000000064e+00
1.554000000000000048e+00
2.319999999999999840e+00
2.963000000000000078e+00
3.398000000000000131e+00
2.507000000000000117e+00
3.004000000000000004e+00
5.698000000000000398e+00
2.196000000000000174e+00
2.673000000000000043e+00
3.750000000000000000e+00
2.879999999999999893e+00
2.755999999999999783e+00
3.459999999999999964e+00
3.480999999999999872e+00
3.314999999999999947e+00
3.480999999999999872e+00
3.500999999999999890e+00
2.009999999999999787e+00
1.657000000000000028e+00
3.915999999999999925e+00
2.568999999999999950e+00
2.673000000000000043e+00
2.900999999999999801e+00
1.947999999999999954e+00
2.507000000000000117e+00
1.927000000000000046e+00
3.210999999999999854e+00
3.210999999999999854e+00
2.755999999999999783e+00
1.449999999999999956e+00
2.548000000000000043e+00
7.249999999999999778e-01
1.491999999999999993e+00
2.858999999999999986e+00
1.760999999999999899e+00
1.802000000000000046e+00
3.314999999999999947e+00
2.029999999999999805e+00
2.900999999999999801e+00
1.802000000000000046e+00
2.383000000000000007e+00
2.069999999999999896e-01
1.387999999999999901e+00
2.528000000000000025e+00
3.564000000000000057e+00
2.341000000000000192e+00
2.174999999999999822e+00
1.864999999999999991e+00
2.051000000000000156e+00
5.799999999999999600e-01
4.184999999999999609e+00
2.196000000000000174e+00
2.797000000000000153e+00
6.219999999999999973e-01
3.833000000000000185e+00
4.040000000000000036e+00
2.444999999999999840e+00
2.237999999999999989e+00
3.564000000000000057e+00
2.217000000000000082e+00
2.858999999999999986e+00
2.174999999999999822e+00
2.423999999999999932e+00
2.693000000000000060e+00
3.459999999999999964e+00
3.480999999999999872e+00
2.486000000000000210e+00
3.543000000000000149e+00
3.398000000000000131e+00
2.341000000000000192e+00
1.782000000000000028e+00
2.942000000000000171e+00
3.543000000000000149e+00
3.335999999999999854e+00
2.983000000000000096e+00
2.092999999999999972e+00
3.024999999999999911e+00
3.065999999999999837e+00
3.169999999999999929e+00
1.409000000000000030e+00
1.098000000000000087e+00
3.253000000000000114e+00
2.942000000000000171e+00
3.004000000000000004e+00
3.419000000000000039e+00
2.133999999999999897e+00
3.087000000000000188e+00
3.854000000000000092e+00
3.999000000000000110e+00
4.931000000000000050e+00
6.008000000000000007e+00
4.620000000000000107e+00
2.528000000000000025e+00
1.264000000000000012e+00
2.403000000000000025e+00
2.568999999999999950e+00
2.154999999999999805e+00
2.942000000000000171e+00
1.304999999999999938e+00
1.201999999999999957e+00
2.797000000000000153e+00
2.133999999999999897e+00
1.885000000000000009e+00
9.120000000000000329e-01
2.112999999999999989e+00
2.652000000000000135e+00
2.797000000000000153e+00
8.080000000000000515e-01
8.080000000000000515e-01
2.258000000000000007e+00
1.967999999999999972e+00
1.449999999999999956e+00
1.699000000000000066e+00
2.652000000000000135e+00
1.844000000000000083e+00
2.092999999999999972e+00
3.854000000000000092e+00
1.594999999999999973e+00
1.616000000000000103e+00
1.554000000000000048e+00
2.258000000000000007e+00
2.589999999999999858e+00
2.009999999999999787e+00
4.349999999999999978e-01
2.489999999999999991e-01
6.009999999999999787e-01
8.910000000000000142e-01
2.092999999999999972e+00
1.677999999999999936e+00
1.594999999999999973e+00
8.910000000000000142e-01
2.112999999999999989e+00
1.076999999999999957e+00
3.004000000000000004e+00
4.206000000000000405e+00
2.362000000000000099e+00
2.383000000000000007e+00
1.699000000000000066e+00
4.040000000000000036e+00
9.939999999999999947e-01
1.574999999999999956e+00
2.797000000000000153e+00
9.120000000000000329e-01
1.181000000000000050e+00
1.346999999999999975e+00
1.036000000000000032e+00
6.840000000000000524e-01
1.802000000000000046e+00
1.056999999999999940e+00
8.080000000000000515e-01
7.670000000000000151e-01
2.489999999999999991e-01
2.072000000000000064e+00
9.529999999999999583e-01
2.362000000000000099e+00
2.280000000000000082e-01
3.940000000000000169e-01
4.969999999999999973e-01
7.249999999999999778e-01
9.120000000000000329e-01
6.420000000000000151e-01
1.181000000000000050e+00
1.366999999999999993e+00
5.390000000000000346e-01
6.630000000000000338e-01
