3.729999999999999982e-01
2.489999999999999991e-01
3.519999999999999796e-01
4.560000000000000164e-01
4.139999999999999791e-01
2.899999999999999800e-01
3.109999999999999987e-01
2.489999999999999991e-01
3.109999999999999987e-01
3.310000000000000164e-01
6.009999999999999787e-01
4.769999999999999796e-01
4.560000000000000164e-01
6.009999999999999787e-01
8.699999999999999956e-01
9.120000000000000329e-01
8.489999999999999769e-01
7.249999999999999778e-01
7.870000000000000329e-01
9.120000000000000329e-01
8.489999999999999769e-01
1.532999999999999918e+00
1.056999999999999940e+00
1.284999999999999920e+00
9.739999999999999769e-01
8.489999999999999769e-01
6.840000000000000524e-01
5.799999999999999600e-01
4.560000000000000164e-01
5.590000000000000524e-01
5.799999999999999600e-01
5.390000000000000346e-01
2.690000000000000169e-01
3.310000000000000164e-01
6.009999999999999787e-01
3.109999999999999987e-01
1.036000000000000032e+00
1.221999999999999975e+00
2.690000000000000169e-01
3.310000000000000164e-01
2.280000000000000082e-01
7.459999999999999964e-01
4.769999999999999796e-01
3.940000000000000169e-01
3.310000000000000164e-01
4.769999999999999796e-01
3.519999999999999796e-01
5.590000000000000524e-01
4.349999999999999978e-01
1.859999999999999987e-01
3.519999999999999796e-01
4.560000000000000164e-01
2.280000000000000082e-01
3.310000000000000164e-01
5.590000000000000524e-01
1.859999999999999987e-01
3.729999999999999982e-01
2.280000000000000082e-01
2.489999999999999991e-01
3.519999999999999796e-01
2.280000000000000082e-01
3.109999999999999987e-01
3.310000000000000164e-01
2.489999999999999991e-01
2.489999999999999991e-01
1.859999999999999987e-01
4.969999999999999973e-01
2.690000000000000169e-01
2.489999999999999991e-01
1.859999999999999987e-01
2.899999999999999800e-01
2.069999999999999896e-01
3.310000000000000164e-01
2.280000000000000082e-01
2.069999999999999896e-01
2.069999999999999896e-01
2.899999999999999800e-01
2.899999999999999800e-01
3.519999999999999796e-01
3.940000000000000169e-01
2.280000000000000082e-01
3.310000000000000164e-01
2.690000000000000169e-01
1.859999999999999987e-01
2.280000000000000082e-01
3.519999999999999796e-01
2.069999999999999896e-01
3.109999999999999987e-01
2.069999999999999896e-01
2.690000000000000169e-01
2.489999999999999991e-01
3.310000000000000164e-01
2.690000000000000169e-01
2.280000000000000082e-01
2.069999999999999896e-01
2.690000000000000169e-01
1.859999999999999987e-01
2.489999999999999991e-01
1.859999999999999987e-01
2.489999999999999991e-01
3.109999999999999987e-01
1.859999999999999987e-01
2.690000000000000169e-01
2.280000000000000082e-01
1.660000000000000087e-01
1.660000000000000087e-01
2.489999999999999991e-01
2.069999999999999896e-01
2.690000000000000169e-01
1.859999999999999987e-01
2.899999999999999800e-01
2.280000000000000082e-01
2.280000000000000082e-01
1.449999999999999900e-01
1.449999999999999900e-01
2.489999999999999991e-01
3.310000000000000164e-01
2.489999999999999991e-01
1.660000000000000087e-01
2.069999999999999896e-01
1.859999999999999987e-01
2.489999999999999991e-01
1.660000000000000087e-01
1.859999999999999987e-01
1.660000000000000087e-01
2.069999999999999896e-01
2.069999999999999896e-01
2.899999999999999800e-01
2.489999999999999991e-01
2.690000000000000169e-01
1.449999999999999900e-01
1.239999999999999991e-01
2.489999999999999991e-01
1.660000000000000087e-01
2.690000000000000169e-01
1.449999999999999900e-01
2.489999999999999991e-01
1.859999999999999987e-01
3.109999999999999987e-01
2.280000000000000082e-01
3.310000000000000164e-01
1.239999999999999991e-01
3.310000000000000164e-01
1.449999999999999900e-01
3.519999999999999796e-01
1.239999999999999991e-01
2.690000000000000169e-01
2.489999999999999991e-01
2.899999999999999800e-01
2.069999999999999896e-01
2.489999999999999991e-01
3.940000000000000169e-01
2.069999999999999896e-01
2.280000000000000082e-01
2.280000000000000082e-01
2.690000000000000169e-01
1.449999999999999900e-01
2.069999999999999896e-01
2.069999999999999896e-01
1.859999999999999987e-01
1.859999999999999987e-01
2.069999999999999896e-01
3.729999999999999982e-01
2.899999999999999800e-01
1.859999999999999987e-01
1.859999999999999987e-01
2.280000000000000082e-01
1.660000000000000087e-01
1.859999999999999987e-01
1.449999999999999900e-01
2.899999999999999800e-01
2.069999999999999896e-01
2.280000000000000082e-01
2.489999999999999991e-01
3.519999999999999796e-01
4.769999999999999796e-01
2.069999999999999896e-01
2.489999999999999991e-01
2.069999999999999896e-01
2.489999999999999991e-01
2.489999999999999991e-01
2.489999999999999991e-01
3.109999999999999987e-01
2.069999999999999896e-01
1.449999999999999900e-01
2.489999999999999991e-01
2.489999999999999991e-01
3.519999999999999796e-01
2.069999999999999896e-01
2.069999999999999896e-01
2.280000000000000082e-01
2.489999999999999991e-01
2.069999999999999896e-01
2.489999999999999991e-01
2.690000000000000169e-01
2.489999999999999991e-01
1.660000000000000087e-01
2.899999999999999800e-01
2.069999999999999896e-01
2.489999999999999991e-01
4.769999999999999796e-01
2.690000000000000169e-01
1.859999999999999987e-01
2.069999999999999896e-01
2.069999999999999896e-01
1.039999999999999952e-01
2.899999999999999800e-01
2.280000000000000082e-01
2.690000000000000169e-01
3.109999999999999987e-01
2.280000000000000082e-01
2.489999999999999991e-01
4.560000000000000164e-01
2.280000000000000082e-01
2.690000000000000169e-01
3.109999999999999987e-01
3.310000000000000164e-01
2.690000000000000169e-01
2.899999999999999800e-01
1.859999999999999987e-01
2.069999999999999896e-01
2.069999999999999896e-01
3.310000000000000164e-01
4.349999999999999978e-01
2.899999999999999800e-01
3.109999999999999987e-01
2.489999999999999991e-01
2.280000000000000082e-01
2.899999999999999800e-01
2.489999999999999991e-01
2.690000000000000169e-01
2.069999999999999896e-01
2.069999999999999896e-01
2.489999999999999991e-01
4.969999999999999973e-01
2.489999999999999991e-01
3.519999999999999796e-01
1.660000000000000087e-01
2.489999999999999991e-01
1.859999999999999987e-01
2.489999999999999991e-01
2.069999999999999896e-01
2.489999999999999991e-01
2.690000000000000169e-01
1.660000000000000087e-01
3.310000000000000164e-01
2.489999999999999991e-01
2.280000000000000082e-01
1.859999999999999987e-01
2.489999999999999991e-01
2.489999999999999991e-01
2.690000000000000169e-01
2.899999999999999800e-01
2.690000000000000169e-01
2.489999999999999991e-01
1.859999999999999987e-01
1.660000000000000087e-01
2.690000000000000169e-01
4.139999999999999791e-01
2.280000000000000082e-01
1.859999999999999987e-01
1.660000000000000087e-01
3.519999999999999796e-01
2.489999999999999991e-01
2.069999999999999896e-01
2.899999999999999800e-01
2.069999999999999896e-01
2.899999999999999800e-01
2.899999999999999800e-01
3.109999999999999987e-01
2.489999999999999991e-01
3.310000000000000164e-01
2.899999999999999800e-01
1.660000000000000087e-01
2.069999999999999896e-01
2.690000000000000169e-01
1.859999999999999987e-01
2.489999999999999991e-01
1.859999999999999987e-01
2.489999999999999991e-01
2.280000000000000082e-01
2.489999999999999991e-01
1.239999999999999991e-01
2.280000000000000082e-01
3.310000000000000164e-01
3.519999999999999796e-01
3.109999999999999987e-01
2.690000000000000169e-01
2.280000000000000082e-01
2.280000000000000082e-01
1.859999999999999987e-01
2.069999999999999896e-01
2.069999999999999896e-01
2.069999999999999896e-01
2.069999999999999896e-01
2.280000000000000082e-01
1.449999999999999900e-01
1.859999999999999987e-01
4.560000000000000164e-01
3.109999999999999987e-01
3.519999999999999796e-01
2.069999999999999896e-01
2.690000000000000169e-01
2.899999999999999800e-01
2.069999999999999896e-01
2.489999999999999991e-01
2.690000000000000169e-01
2.489999999999999991e-01
2.280000000000000082e-01
2.899999999999999800e-01
2.069999999999999896e-01
3.519999999999999796e-01
4.349999999999999978e-01
1.660000000000000087e-01
2.069999999999999896e-01
2.069999999999999896e-01
2.899999999999999800e-01
1.859999999999999987e-01
2.069999999999999896e-01
2.280000000000000082e-01
2.069999999999999896e-01
2.069999999999999896e-01
2.280000000000000082e-01
3.109999999999999987e-01
2.280000000000000082e-01
4.349999999999999978e-01
1.660000000000000087e-01
3.519999999999999796e-01
2.690000000000000169e-01
2.489999999999999991e-01
1.660000000000000087e-01
1.660000000000000087e-01
2.280000000000000082e-01
3.310000000000000164e-01
2.489999999999999991e-01
2.489999999999999991e-01
2.280000000000000082e-01
4.349999999999999978e-01
2.489999999999999991e-01
2.069999999999999896e-01
3.519999999999999796e-01
2.690000000000000169e-01
2.069999999999999896e-01
3.310000000000000164e-01
2.069999999999999896e-01
3.109999999999999987e-01
2.899999999999999800e-01
2.489999999999999991e-01
2.280000000000000082e-01
1.859999999999999987e-01
4.769999999999999796e-01
1.859999999999999987e-01
2.280000000000000082e-01
2.489999999999999991e-01
2.690000000000000169e-01
3.109999999999999987e-01
2.069999999999999896e-01
2.280000000000000082e-01
2.069999999999999896e-01
3.519999999999999796e-01
2.280000000000000082e-01
2.069999999999999896e-01
2.069999999999999896e-01
4.769999999999999796e-01
2.280000000000000082e-01
2.280000000000000082e-01
2.690000000000000169e-01
1.859999999999999987e-01
2.690000000000000169e-01
1.859999999999999987e-01
2.280000000000000082e-01
2.280000000000000082e-01
1.859999999999999987e-01
2.489999999999999991e-01
3.310000000000000164e-01
3.940000000000000169e-01
3.940000000000000169e-01
2.690000000000000169e-01
2.280000000000000082e-01
1.449999999999999900e-01
2.489999999999999991e-01
2.280000000000000082e-01
1.859999999999999987e-01
2.489999999999999991e-01
1.660000000000000087e-01
2.280000000000000082e-01
3.109999999999999987e-01
2.069999999999999896e-01
2.280000000000000082e-01
3.729999999999999982e-01
4.139999999999999791e-01
3.109999999999999987e-01
2.489999999999999991e-01
1.660000000000000087e-01
2.069999999999999896e-01
2.690000000000000169e-01
2.069999999999999896e-01
2.069999999999999896e-01
1.859999999999999987e-01
2.069999999999999896e-01
2.489999999999999991e-01
2.280000000000000082e-01
4.349999999999999978e-01
2.489999999999999991e-01
2.489999999999999991e-01
2.069999999999999896e-01
2.899999999999999800e-01
2.069999999999999896e-01
2.489999999999999991e-01
2.899999999999999800e-01
2.280000000000000082e-01
3.310000000000000164e-01
2.280000000000000082e-01
2.690000000000000169e-01
3.310000000000000164e-01
4.349999999999999978e-01
2.280000000000000082e-01
2.690000000000000169e-01
2.489999999999999991e-01
2.899999999999999800e-01
1.660000000000000087e-01
2.280000000000000082e-01
2.280000000000000082e-01
2.899999999999999800e-01
3.310000000000000164e-01
2.280000000000000082e-01
2.280000000000000082e-01
4.349999999999999978e-01
1.859999999999999987e-01
2.489999999999999991e-01
2.280000000000000082e-01
2.899999999999999800e-01
1.449999999999999900e-01
2.280000000000000082e-01
1.859999999999999987e-01
2.489999999999999991e-01
2.489999999999999991e-01
2.280000000000000082e-01
1.239999999999999991e-01
2.489999999999999991e-01
3.729999999999999982e-01
3.109999999999999987e-01
2.899999999999999800e-01
2.280000000000000082e-01
2.069999999999999896e-01
2.690000000000000169e-01
1.859999999999999987e-01
1.859999999999999987e-01
2.069999999999999896e-01
2.899999999999999800e-01
1.859999999999999987e-01
2.690000000000000169e-01
2.690000000000000169e-01
3.310000000000000164e-01
1.449999999999999900e-01
2.069999999999999896e-01
2.280000000000000082e-01
2.489999999999999991e-01
2.280000000000000082e-01
2.690000000000000169e-01
2.899999999999999800e-01
2.069999999999999896e-01
2.489999999999999991e-01
1.449999999999999900e-01
3.109999999999999987e-01
4.349999999999999978e-01
1.660000000000000087e-01
3.109999999999999987e-01
2.280000000000000082e-01
2.069999999999999896e-01
1.660000000000000087e-01
2.489999999999999991e-01
2.069999999999999896e-01
3.109999999999999987e-01
2.069999999999999896e-01
2.280000000000000082e-01
3.109999999999999987e-01
2.280000000000000082e-01
4.769999999999999796e-01
2.069999999999999896e-01
2.489999999999999991e-01
1.239999999999999991e-01
2.690000000000000169e-01
2.069999999999999896e-01
2.489999999999999991e-01
2.069999999999999896e-01
1.859999999999999987e-01
2.280000000000000082e-01
1.660000000000000087e-01
2.489999999999999991e-01
1.859999999999999987e-01
2.280000000000000082e-01
4.560000000000000164e-01
2.280000000000000082e-01
1.239999999999999991e-01
2.690000000000000169e-01
1.239999999999999991e-01
4.139999999999999791e-01
1.264000000000000012e+00
2.196000000000000174e+00
1.616000000000000103e+00
1.471000000000000085e+00
8.910000000000000142e-01
1.159999999999999920e+00
6.630000000000000338e-01
9.739999999999999769e-01
1.098000000000000087e+00
1.719999999999999973e+00
1.118999999999999995e+00
1.719999999999999973e+00
1.947999999999999954e+00
8.699999999999999956e-01
7.670000000000000151e-01
1.036000000000000032e+00
9.939999999999999947e-01
1.947999999999999954e+00
9.939999999999999947e-01
1.409000000000000030e+00
2.423999999999999932e+00
2.900999999999999801e+00
1.637000000000000011e+00
3.087000000000000188e+00
1.760999999999999899e+00
4.288999999999999702e+00
3.688000000000000167e+00
3.915999999999999925e+00
4.807000000000000384e+00
5.386999999999999567e+00
4.807000000000000384e+00
7.769000000000000128e+00
4.764999999999999680e+00
4.868999999999999773e+00
8.680999999999999162e+00
1.025600000000000023e+01
4.453999999999999737e+00
8.246000000000000441e+00
1.118800000000000061e+01
3.294000000000000039e+00
7.562000000000000277e+00
9.612999999999999545e+00
5.842999999999999972e+00
3.956999999999999851e+00
2.693000000000000060e+00
6.775000000000000355e+00
2.713999999999999968e+00
2.838000000000000078e+00
2.693000000000000060e+00
4.641000000000000014e+00
8.018000000000000682e+00
1.864999999999999991e+00
1.822999999999999954e+00
2.092999999999999972e+00
2.174999999999999822e+00
2.362000000000000099e+00
1.677999999999999936e+00
1.927000000000000046e+00
1.864999999999999991e+00
1.181000000000000050e+00
1.927000000000000046e+00
2.112999999999999989e+00
9.739999999999999769e-01
7.039999999999999591e-01
9.529999999999999583e-01
4.769999999999999796e-01
4.560000000000000164e-01
5.799999999999999600e-01
6.219999999999999973e-01
5.590000000000000524e-01
3.940000000000000169e-01
4.349999999999999978e-01
7.039999999999999591e-01
6.630000000000000338e-01
4.560000000000000164e-01
4.349999999999999978e-01
5.799999999999999600e-01
1.036000000000000032e+00
5.590000000000000524e-01
7.670000000000000151e-01
9.120000000000000329e-01
7.459999999999999964e-01
6.009999999999999787e-01
2.899999999999999800e-01
5.590000000000000524e-01
3.940000000000000169e-01
3.109999999999999987e-01
8.489999999999999769e-01
4.769999999999999796e-01
4.969999999999999973e-01
2.280000000000000082e-01
8.080000000000000515e-01
5.180000000000000160e-01
3.729999999999999982e-01
5.180000000000000160e-01
5.390000000000000346e-01
7.039999999999999591e-01
7.459999999999999964e-01
6.009999999999999787e-01
4.349999999999999978e-01
6.009999999999999787e-01
3.310000000000000164e-01
2.489999999999999991e-01
3.729999999999999982e-01
5.390000000000000346e-01
2.489999999999999991e-01
1.859999999999999987e-01
2.069999999999999896e-01
3.940000000000000169e-01
4.769999999999999796e-01
3.310000000000000164e-01
2.690000000000000169e-01
2.489999999999999991e-01
2.069999999999999896e-01
5.390000000000000346e-01
3.940000000000000169e-01
2.489999999999999991e-01
3.109999999999999987e-01
3.109999999999999987e-01
2.069999999999999896e-01
2.280000000000000082e-01
3.310000000000000164e-01
2.690000000000000169e-01
3.109999999999999987e-01
2.069999999999999896e-01
3.109999999999999987e-01
1.859999999999999987e-01
2.069999999999999896e-01
2.690000000000000169e-01
2.280000000000000082e-01
2.899999999999999800e-01
2.280000000000000082e-01
3.310000000000000164e-01
2.280000000000000082e-01
2.489999999999999991e-01
2.489999999999999991e-01
3.519999999999999796e-01
3.310000000000000164e-01
1.660000000000000087e-01
1.660000000000000087e-01
2.899999999999999800e-01
1.859999999999999987e-01
2.069999999999999896e-01
2.280000000000000082e-01
1.859999999999999987e-01
2.280000000000000082e-01
1.449999999999999900e-01
1.859999999999999987e-01
2.069999999999999896e-01
3.109999999999999987e-01
4.139999999999999791e-01
1.859999999999999987e-01
3.310000000000000164e-01
1.660000000000000087e-01
1.859999999999999987e-01
2.489999999999999991e-01
2.489999999999999991e-01
1.449999999999999900e-01
2.489999999999999991e-01
1.660000000000000087e-01
2.899999999999999800e-01
1.660000000000000087e-01
2.280000000000000082e-01
4.560000000000000164e-01
2.280000000000000082e-01
2.690000000000000169e-01
1.449999999999999900e-01
1.239999999999999991e-01
3.729999999999999982e-01
2.280000000000000082e-01
2.899999999999999800e-01
2.069999999999999896e-01
3.310000000000000164e-01
1.660000000000000087e-01
2.280000000000000082e-01
2.690000000000000169e-01
3.729999999999999982e-01
2.489999999999999991e-01
2.069999999999999896e-01
2.489999999999999991e-01
1.859999999999999987e-01
2.280000000000000082e-01
2.489999999999999991e-01
1.859999999999999987e-01
2.069999999999999896e-01
1.660000000000000087e-01
2.280000000000000082e-01
2.280000000000000082e-01
3.519999999999999796e-01
3.109999999999999987e-01
2.069999999999999896e-01
2.280000000000000082e-01
1.859999999999999987e-01
1.859999999999999987e-01
2.069999999999999896e-01
1.859999999999999987e-01
1.660000000000000087e-01
1.859999999999999987e-01
2.280000000000000082e-01
2.489999999999999991e-01
2.280000000000000082e-01
4.139999999999999791e-01
3.519999999999999796e-01
2.280000000000000082e-01
2.069999999999999896e-01
2.899999999999999800e-01
1.859999999999999987e-01
1.660000000000000087e-01
2.899999999999999800e-01
1.859999999999999987e-01
1.859999999999999987e-01
1.239999999999999991e-01
2.489999999999999991e-01
2.280000000000000082e-01
1.660000000000000087e-01
3.109999999999999987e-01
2.280000000000000082e-01
1.449999999999999900e-01
2.899999999999999800e-01
1.859999999999999987e-01
1.859999999999999987e-01
2.280000000000000082e-01
2.069999999999999896e-01
1.660000000000000087e-01
2.489999999999999991e-01
2.069999999999999896e-01
1.859999999999999987e-01
1.660000000000000087e-01
1.449999999999999900e-01
3.109999999999999987e-01
4.349999999999999978e-01
1.859999999999999987e-01
2.280000000000000082e-01
1.449999999999999900e-01
1.859999999999999987e-01
1.449999999999999900e-01
1.449999999999999900e-01
2.069999999999999896e-01
3.310000000000000164e-01
2.280000000000000082e-01
2.069999999999999896e-01
2.489999999999999991e-01
1.660000000000000087e-01
2.899999999999999800e-01
3.310000000000000164e-01
2.489999999999999991e-01
1.859999999999999987e-01
2.069999999999999896e-01
2.069999999999999896e-01
1.859999999999999987e-01
1.239999999999999991e-01
1.239999999999999991e-01
1.660000000000000087e-01
1.859999999999999987e-01
2.069999999999999896e-01
3.109999999999999987e-01
1.660000000000000087e-01
2.899999999999999800e-01
2.489999999999999991e-01
1.449999999999999900e-01
1.660000000000000087e-01
2.489999999999999991e-01
2.280000000000000082e-01
2.069999999999999896e-01
1.859999999999999987e-01
2.489999999999999991e-01
1.660000000000000087e-01
1.859999999999999987e-01
1.859999999999999987e-01
2.690000000000000169e-01
2.899999999999999800e-01
1.660000000000000087e-01
2.280000000000000082e-01
2.489999999999999991e-01
2.069999999999999896e-01
2.069999999999999896e-01
1.859999999999999987e-01
1.859999999999999987e-01
2.069999999999999896e-01
1.859999999999999987e-01
1.660000000000000087e-01
2.069999999999999896e-01
3.310000000000000164e-01
2.489999999999999991e-01
1.859999999999999987e-01
2.280000000000000082e-01
2.069999999999999896e-01
1.449999999999999900e-01
2.899999999999999800e-01
2.069999999999999896e-01
2.280000000000000082e-01
2.069999999999999896e-01
1.859999999999999987e-01
2.489999999999999991e-01
2.280000000000000082e-01
2.899999999999999800e-01
3.310000000000000164e-01
1.859999999999999987e-01
1.449999999999999900e-01
1.859999999999999987e-01
2.489999999999999991e-01
1.859999999999999987e-01
2.280000000000000082e-01
2.280000000000000082e-01
2.280000000000000082e-01
1.660000000000000087e-01
2.280000000000000082e-01
1.859999999999999987e-01
2.489999999999999991e-01
1.660000000000000087e-01
4.349999999999999978e-01
2.069999999999999896e-01
1.660000000000000087e-01
2.690000000000000169e-01
2.280000000000000082e-01
1.859999999999999987e-01
1.859999999999999987e-01
1.660000000000000087e-01
1.660000000000000087e-01
3.310000000000000164e-01
1.859999999999999987e-01
1.449999999999999900e-01
1.660000000000000087e-01
1.239999999999999991e-01
4.349999999999999978e-01
1.859999999999999987e-01
1.859999999999999987e-01
1.859999999999999987e-01
2.489999999999999991e-01
1.449999999999999900e-01
2.069999999999999896e-01
2.069999999999999896e-01
2.489999999999999991e-01
1.449999999999999900e-01
1.660000000000000087e-01
1.449999999999999900e-01
2.899999999999999800e-01
1.660000000000000087e-01
3.940000000000000169e-01
2.489999999999999991e-01
1.449999999999999900e-01
2.069999999999999896e-01
1.660000000000000087e-01
1.449999999999999900e-01
1.660000000000000087e-01
1.859999999999999987e-01
1.859999999999999987e-01
2.280000000000000082e-01
1.859999999999999987e-01
1.859999999999999987e-01
1.660000000000000087e-01
3.310000000000000164e-01
3.729999999999999982e-01
2.069999999999999896e-01
1.449999999999999900e-01
1.859999999999999987e-01
1.859999999999999987e-01
2.690000000000000169e-01
1.859999999999999987e-01
1.660000000000000087e-01
2.489999999999999991e-01
1.239999999999999991e-01
2.069999999999999896e-01
2.280000000000000082e-01
3.310000000000000164e-01
4.349999999999999978e-01
1.660000000000000087e-01
1.449999999999999900e-01
2.069999999999999896e-01
1.660000000000000087e-01
1.859999999999999987e-01
2.690000000000000169e-01
2.280000000000000082e-01
2.069999999999999896e-01
1.859999999999999987e-01
2.489999999999999991e-01
2.069999999999999896e-01
2.280000000000000082e-01
3.109999999999999987e-01
2.690000000000000169e-01
1.859999999999999987e-01
1.660000000000000087e-01
1.660000000000000087e-01
2.899999999999999800e-01
2.280000000000000082e-01
1.449999999999999900e-01
1.859999999999999987e-01
2.069999999999999896e-01
1.660000000000000087e-01
2.489999999999999991e-01
1.660000000000000087e-01
2.069999999999999896e-01
1.859999999999999987e-01
3.109999999999999987e-01
2.280000000000000082e-01
2.489999999999999991e-01
1.660000000000000087e-01
2.069999999999999896e-01
2.069999999999999896e-01
2.280000000000000082e-01
1.859999999999999987e-01
2.280000000000000082e-01
2.489999999999999991e-01
1.660000000000000087e-01
1.859999999999999987e-01
1.859999999999999987e-01
1.449999999999999900e-01
2.899999999999999800e-01
4.349999999999999978e-01
1.239999999999999991e-01
1.859999999999999987e-01
1.660000000000000087e-01
2.069999999999999896e-01
1.660000000000000087e-01
1.449999999999999900e-01
2.280000000000000082e-01
1.449999999999999900e-01
2.280000000000000082e-01
1.859999999999999987e-01
1.859999999999999987e-01
1.660000000000000087e-01
2.069999999999999896e-01
2.489999999999999991e-01
3.940000000000000169e-01
1.449999999999999900e-01
1.859999999999999987e-01
2.489999999999999991e-01
2.280000000000000082e-01
2.069999999999999896e-01
2.069999999999999896e-01
1.449999999999999900e-01
2.280000000000000082e-01
1.449999999999999900e-01
1.449999999999999900e-01
2.690000000000000169e-01
2.280000000000000082e-01
2.899999999999999800e-01
1.859999999999999987e-01
1.859999999999999987e-01
2.280000000000000082e-01
2.280000000000000082e-01
3.109999999999999987e-01
2.280000000000000082e-01
1.660000000000000087e-01
2.899999999999999800e-01
1.859999999999999987e-01
1.660000000000000087e-01
1.859999999999999987e-01
2.899999999999999800e-01
3.310000000000000164e-01
2.489999999999999991e-01
1.660000000000000087e-01
1.660000000000000087e-01
2.069999999999999896e-01
2.069999999999999896e-01
1.859999999999999987e-01
1.239999999999999991e-01
2.489999999999999991e-01
1.660000000000000087e-01
2.069999999999999896e-01
1.859999999999999987e-01
2.069999999999999896e-01
3.729999999999999982e-01
2.069999999999999896e-01
1.449999999999999900e-01
1.859999999999999987e-01
2.690000000000000169e-01
1.859999999999999987e-01
1.859999999999999987e-01
2.280000000000000082e-01
2.690000000000000169e-01
1.859999999999999987e-01
2.280000000000000082e-01
2.069999999999999896e-01
1.859999999999999987e-01
2.280000000000000082e-01
3.940000000000000169e-01
2.069999999999999896e-01
1.449999999999999900e-01
1.859999999999999987e-01
1.859999999999999987e-01
1.660000000000000087e-01
1.449999999999999900e-01
1.859999999999999987e-01
2.069999999999999896e-01
1.660000000000000087e-01
1.449999999999999900e-01
2.489999999999999991e-01
1.660000000000000087e-01
4.139999999999999791e-01
3.729999999999999982e-01
1.660000000000000087e-01
1.449999999999999900e-01
1.859999999999999987e-01
2.069999999999999896e-01
1.449999999999999900e-01
2.069999999999999896e-01
1.859999999999999987e-01
2.069999999999999896e-01
1.859999999999999987e-01
1.449999999999999900e-01
2.069999999999999896e-01
2.280000000000000082e-01
3.310000000000000164e-01
1.859999999999999987e-01
1.660000000000000087e-01
1.660000000000000087e-01
1.449999999999999900e-01
1.859999999999999987e-01
2.069999999999999896e-01
1.449999999999999900e-01
1.859999999999999987e-01
1.859999999999999987e-01
1.859999999999999987e-01
1.859999999999999987e-01
3.109999999999999987e-01
2.690000000000000169e-01
2.280000000000000082e-01
1.859999999999999987e-01
1.660000000000000087e-01
2.690000000000000169e-01
1.859999999999999987e-01
1.449999999999999900e-01
2.489999999999999991e-01
1.660000000000000087e-01
2.489999999999999991e-01
1.859999999999999987e-01
2.280000000000000082e-01
4.139999999999999791e-01
4.560000000000000164e-01
1.239999999999999991e-01
2.899999999999999800e-01
2.489999999999999991e-01
1.859999999999999987e-01
2.280000000000000082e-01
2.489999999999999991e-01
1.859999999999999987e-01
1.859999999999999987e-01
2.069999999999999896e-01
1.859999999999999987e-01
2.069999999999999896e-01
2.489999999999999991e-01
2.069999999999999896e-01
3.729999999999999982e-01
2.280000000000000082e-01
2.069999999999999896e-01
2.489999999999999991e-01
2.069999999999999896e-01
2.069999999999999896e-01
1.859999999999999987e-01
2.069999999999999896e-01
1.859999999999999987e-01
1.449999999999999900e-01
2.690000000000000169e-01
2.280000000000000082e-01
1.660000000000000087e-01
3.109999999999999987e-01
3.519999999999999796e-01
2.069999999999999896e-01
2.690000000000000169e-01
1.859999999999999987e-01
1.859999999999999987e-01
2.489999999999999991e-01
1.449999999999999900e-01
1.449999999999999900e-01
2.069999999999999896e-01
1.660000000000000087e-01
2.280000000000000082e-01
1.859999999999999987e-01
1.859999999999999987e-01
3.519999999999999796e-01
2.690000000000000169e-01
1.660000000000000087e-01
1.449999999999999900e-01
1.859999999999999987e-01
1.449999999999999900e-01
2.280000000000000082e-01
1.859999999999999987e-01
1.859999999999999987e-01
2.899999999999999800e-01
1.859999999999999987e-01
1.859999999999999987e-01
1.859999999999999987e-01
3.940000000000000169e-01
1.859999999999999987e-01
1.660000000000000087e-01
4.560000000000000164e-01
2.280000000000000082e-01
2.069999999999999896e-01
1.660000000000000087e-01
2.280000000000000082e-01
2.069999999999999896e-01
1.859999999999999987e-01
1.859999999999999987e-01
2.069999999999999896e-01
2.489999999999999991e-01
2.690000000000000169e-01
3.109999999999999987e-01
2.690000000000000169e-01
1.239999999999999991e-01
1.859999999999999987e-01
1.859999999999999987e-01
2.690000000000000169e-01
1.859999999999999987e-01
2.069999999999999896e-01
1.859999999999999987e-01
2.899999999999999800e-01
2.489999999999999991e-01
1.660000000000000087e-01
2.690000000000000169e-01
4.969999999999999973e-01
2.690000000000000169e-01
1.859999999999999987e-01
2.069999999999999896e-01
2.489999999999999991e-01
2.489999999999999991e-01
2.489999999999999991e-01
2.280000000000000082e-01
2.690000000000000169e-01
1.859999999999999987e-01
2.489999999999999991e-01
2.899999999999999800e-01
1.660000000000000087e-01
3.109999999999999987e-01
3.519999999999999796e-01
2.280000000000000082e-01
2.069999999999999896e-01
2.069999999999999896e-01
1.859999999999999987e-01
1.449999999999999900e-01
2.489999999999999991e-01
2.280000000000000082e-01
2.280000000000000082e-01
1.660000000000000087e-01
2.489999999999999991e-01
2.069999999999999896e-01
3.310000000000000164e-01
3.310000000000000164e-01
1.859999999999999987e-01
2.489999999999999991e-01
1.449999999999999900e-01
2.069999999999999896e-01
1.859999999999999987e-01
1.859999999999999987e-01
2.069999999999999896e-01
1.660000000000000087e-01
2.069999999999999896e-01
1.859999999999999987e-01
1.859999999999999987e-01
3.519999999999999796e-01
3.109999999999999987e-01
1.859999999999999987e-01
2.280000000000000082e-01
2.069999999999999896e-01
1.859999999999999987e-01
1.660000000000000087e-01
2.280000000000000082e-01
2.069999999999999896e-01
2.069999999999999896e-01
1.449999999999999900e-01
1.859999999999999987e-01
1.859999999999999987e-01
1.660000000000000087e-01
4.769999999999999796e-01
2.899999999999999800e-01
2.899999999999999800e-01
2.069999999999999896e-01
2.489999999999999991e-01
1.859999999999999987e-01
1.660000000000000087e-01
1.660000000000000087e-01
2.069999999999999896e-01
1.449999999999999900e-01
1.239999999999999991e-01
1.859999999999999987e-01
2.069999999999999896e-01
2.280000000000000082e-01
3.310000000000000164e-01
2.899999999999999800e-01
2.280000000000000082e-01
2.489999999999999991e-01
1.859999999999999987e-01
2.489999999999999991e-01
1.660000000000000087e-01
1.859999999999999987e-01
2.280000000000000082e-01
2.489999999999999991e-01
1.859999999999999987e-01
1.859999999999999987e-01
2.489999999999999991e-01
2.069999999999999896e-01
3.310000000000000164e-01
3.109999999999999987e-01
2.280000000000000082e-01
2.280000000000000082e-01
1.859999999999999987e-01
1.660000000000000087e-01
2.069999999999999896e-01
1.859999999999999987e-01
1.859999999999999987e-01
2.280000000000000082e-01
2.280000000000000082e-01
2.069999999999999896e-01
1.859999999999999987e-01
4.349999999999999978e-01
2.690000000000000169e-01
2.069999999999999896e-01
2.069999999999999896e-01
1.449999999999999900e-01
2.069999999999999896e-01
1.660000000000000087e-01
2.280000000000000082e-01
1.859999999999999987e-01
2.069999999999999896e-01
2.069999999999999896e-01
2.690000000000000169e-01
2.489999999999999991e-01
3.940000000000000169e-01
2.280000000000000082e-01
1.660000000000000087e-01
1.239999999999999991e-01
1.859999999999999987e-01
1.859999999999999987e-01
1.660000000000000087e-01
1.859999999999999987e-01
1.660000000000000087e-01
2.069999999999999896e-01
2.069999999999999896e-01
1.449999999999999900e-01
1.660000000000000087e-01
4.139999999999999791e-01
2.489999999999999991e-01
1.449999999999999900e-01
1.449999999999999900e-01
1.449999999999999900e-01
2.280000000000000082e-01
2.280000000000000082e-01
2.280000000000000082e-01
2.690000000000000169e-01
2.280000000000000082e-01
1.449999999999999900e-01
2.069999999999999896e-01
2.690000000000000169e-01
2.069999999999999896e-01
3.729999999999999982e-01
1.859999999999999987e-01
1.859999999999999987e-01
1.449999999999999900e-01
2.069999999999999896e-01
1.660000000000000087e-01
2.280000000000000082e-01
1.660000000000000087e-01
1.239999999999999991e-01
1.859999999999999987e-01
2.069999999999999896e-01
2.690000000000000169e-01
1.859999999999999987e-01
4.349999999999999978e-01
2.489999999999999991e-01
1.859999999999999987e-01
2.690000000000000169e-01
2.280000000000000082e-01
1.449999999999999900e-01
1.859999999999999987e-01
1.660000000000000087e-01
2.069999999999999896e-01
1.859999999999999987e-01
2.069999999999999896e-01
1.859999999999999987e-01
2.690000000000000169e-01
3.729999999999999982e-01
2.489999999999999991e-01
2.690000000000000169e-01
2.280000000000000082e-01
2.690000000000000169e-01
2.069999999999999896e-01
2.489999999999999991e-01
1.859999999999999987e-01
2.489999999999999991e-01
2.489999999999999991e-01
1.660000000000000087e-01
2.280000000000000082e-01
1.859999999999999987e-01
2.690000000000000169e-01
3.109999999999999987e-01
2.280000000000000082e-01
2.280000000000000082e-01
1.859999999999999987e-01
1.449999999999999900e-01
2.690000000000000169e-01
2.280000000000000082e-01
1.859999999999999987e-01
1.660000000000000087e-01
2.280000000000000082e-01
1.660000000000000087e-01
1.660000000000000087e-01
2.690000000000000169e-01
1.859999999999999987e-01
2.899999999999999800e-01
3.940000000000000169e-01
2.280000000000000082e-01
1.660000000000000087e-01
1.660000000000000087e-01
2.069999999999999896e-01
1.859999999999999987e-01
2.280000000000000082e-01
2.690000000000000169e-01
1.859999999999999987e-01
2.280000000000000082e-01
2.280000000000000082e-01
2.069999999999999896e-01
1.660000000000000087e-01
1.660000000000000087e-01
2.899999999999999800e-01
2.899999999999999800e-01
2.069999999999999896e-01
2.280000000000000082e-01
1.449999999999999900e-01
1.859999999999999987e-01
2.069999999999999896e-01
2.069999999999999896e-01
1.859999999999999987e-01
1.859999999999999987e-01
1.859999999999999987e-01
1.859999999999999987e-01
1.859999999999999987e-01
2.069999999999999896e-01
1.859999999999999987e-01
3.109999999999999987e-01
3.109999999999999987e-01
2.489999999999999991e-01
2.690000000000000169e-01
1.859999999999999987e-01
2.069999999999999896e-01
1.449999999999999900e-01
1.660000000000000087e-01
1.449999999999999900e-01
2.069999999999999896e-01
1.859999999999999987e-01
1.859999999999999987e-01
2.069999999999999896e-01
2.899999999999999800e-01
3.940000000000000169e-01
1.859999999999999987e-01
1.859999999999999987e-01
2.899999999999999800e-01
1.660000000000000087e-01
1.660000000000000087e-01
2.069999999999999896e-01
2.069999999999999896e-01
1.660000000000000087e-01
1.660000000000000087e-01
2.069999999999999896e-01
1.449999999999999900e-01
1.660000000000000087e-01
3.519999999999999796e-01
3.940000000000000169e-01
2.280000000000000082e-01
1.449999999999999900e-01
1.660000000000000087e-01
2.069999999999999896e-01
2.069999999999999896e-01
2.280000000000000082e-01
2.280000000000000082e-01
2.280000000000000082e-01
2.280000000000000082e-01
2.069999999999999896e-01
2.489999999999999991e-01
1.660000000000000087e-01
3.109999999999999987e-01
5.799999999999999600e-01
1.859999999999999987e-01
2.489999999999999991e-01
1.859999999999999987e-01
3.310000000000000164e-01
1.859999999999999987e-01
1.859999999999999987e-01
1.859999999999999987e-01
3.310000000000000164e-01
2.690000000000000169e-01
2.489999999999999991e-01
2.489999999999999991e-01
2.489999999999999991e-01
2.489999999999999991e-01
2.489999999999999991e-01
3.519999999999999796e-01
1.660000000000000087e-01
2.690000000000000169e-01
1.859999999999999987e-01
2.489999999999999991e-01
1.660000000000000087e-01
1.859999999999999987e-01
1.660000000000000087e-01
2.069999999999999896e-01
2.280000000000000082e-01
1.660000000000000087e-01
1.660000000000000087e-01
2.280000000000000082e-01
2.069999999999999896e-01
3.729999999999999982e-01
3.729999999999999982e-01
1.239999999999999991e-01
2.069999999999999896e-01
1.859999999999999987e-01
2.069999999999999896e-01
1.660000000000000087e-01
2.069999999999999896e-01
2.489999999999999991e-01
1.859999999999999987e-01
1.449999999999999900e-01
2.069999999999999896e-01
2.489999999999999991e-01
3.310000000000000164e-01
2.899999999999999800e-01
1.660000000000000087e-01
2.069999999999999896e-01
2.280000000000000082e-01
1.449999999999999900e-01
1.859999999999999987e-01
1.859999999999999987e-01
2.280000000000000082e-01
3.109999999999999987e-01
2.069999999999999896e-01
1.859999999999999987e-01
2.489999999999999991e-01
4.139999999999999791e-01
4.560000000000000164e-01
2.280000000000000082e-01
2.069999999999999896e-01
1.660000000000000087e-01
2.489999999999999991e-01
1.239999999999999991e-01
1.660000000000000087e-01
1.660000000000000087e-01
2.280000000000000082e-01
2.280000000000000082e-01
2.280000000000000082e-01
1.859999999999999987e-01
2.280000000000000082e-01
3.729999999999999982e-01
3.310000000000000164e-01
1.859999999999999987e-01
2.069999999999999896e-01
1.859999999999999987e-01
2.280000000000000082e-01
2.280000000000000082e-01
1.859999999999999987e-01
2.489999999999999991e-01
2.280000000000000082e-01
2.280000000000000082e-01
2.489999999999999991e-01
2.069999999999999896e-01
1.859999999999999987e-01
3.109999999999999987e-01
3.519999999999999796e-01
2.069999999999999896e-01
1.859999999999999987e-01
2.280000000000000082e-01
1.449999999999999900e-01
1.859999999999999987e-01
3.519999999999999796e-01
2.489999999999999991e-01
1.859999999999999987e-01
2.069999999999999896e-01
3.109999999999999987e-01
2.280000000000000082e-01
1.660000000000000087e-01
1.449999999999999900e-01
4.349999999999999978e-01
1.859999999999999987e-01
1.660000000000000087e-01
2.280000000000000082e-01
1.449999999999999900e-01
2.489999999999999991e-01
2.069999999999999896e-01
1.859999999999999987e-01
3.109999999999999987e-01
1.449999999999999900e-01
2.069999999999999896e-01
1.660000000000000087e-01
2.069999999999999896e-01
2.489999999999999991e-01
4.769999999999999796e-01
1.660000000000000087e-01
2.280000000000000082e-01
2.280000000000000082e-01
2.280000000000000082e-01
2.690000000000000169e-01
1.859999999999999987e-01
2.489999999999999991e-01
1.859999999999999987e-01
2.489999999999999991e-01
1.660000000000000087e-01
1.449999999999999900e-01
1.660000000000000087e-01
4.560000000000000164e-01
2.069999999999999896e-01
1.660000000000000087e-01
2.690000000000000169e-01
2.069999999999999896e-01
2.690000000000000169e-01
2.069999999999999896e-01
1.859999999999999987e-01
1.239999999999999991e-01
1.859999999999999987e-01
1.660000000000000087e-01
2.280000000000000082e-01
1.859999999999999987e-01
2.899999999999999800e-01
3.519999999999999796e-01
1.859999999999999987e-01
2.489999999999999991e-01
2.069999999999999896e-01
2.489999999999999991e-01
1.660000000000000087e-01
2.280000000000000082e-01
1.859999999999999987e-01
1.859999999999999987e-01
2.069999999999999896e-01
2.489999999999999991e-01
1.859999999999999987e-01
1.449999999999999900e-01
2.069999999999999896e-01
3.729999999999999982e-01
2.690000000000000169e-01
1.660000000000000087e-01
1.660000000000000087e-01
1.660000000000000087e-01
1.660000000000000087e-01
2.280000000000000082e-01
1.859999999999999987e-01
1.660000000000000087e-01
1.859999999999999987e-01
1.859999999999999987e-01
2.280000000000000082e-01
1.859999999999999987e-01
1.859999999999999987e-01
2.280000000000000082e-01
4.139999999999999791e-01
2.069999999999999896e-01
2.489999999999999991e-01
1.660000000000000087e-01
2.069999999999999896e-01
1.859999999999999987e-01
2.280000000000000082e-01
1.660000000000000087e-01
1.859999999999999987e-01
2.069999999999999896e-01
1.449999999999999900e-01
2.899999999999999800e-01
1.859999999999999987e-01
2.489999999999999991e-01
3.310000000000000164e-01
2.280000000000000082e-01
1.859999999999999987e-01
2.280000000000000082e-01
2.899999999999999800e-01
2.489999999999999991e-01
2.280000000000000082e-01
1.859999999999999987e-01
2.069999999999999896e-01
2.690000000000000169e-01
1.449999999999999900e-01
2.280000000000000082e-01
1.859999999999999987e-01
4.560000000000000164e-01
2.069999999999999896e-01
2.489999999999999991e-01
2.069999999999999896e-01
1.660000000000000087e-01
1.660000000000000087e-01
1.449999999999999900e-01
2.069999999999999896e-01
2.280000000000000082e-01
2.069999999999999896e-01
1.660000000000000087e-01
1.660000000000000087e-01
1.660000000000000087e-01
3.729999999999999982e-01
3.109999999999999987e-01
2.489999999999999991e-01
2.069999999999999896e-01
2.489999999999999991e-01
1.449999999999999900e-01
2.069999999999999896e-01
1.859999999999999987e-01
2.069999999999999896e-01
1.660000000000000087e-01
1.660000000000000087e-01
1.660000000000000087e-01
2.069999999999999896e-01
2.069999999999999896e-01
2.069999999999999896e-01
2.899999999999999800e-01
3.519999999999999796e-01
1.859999999999999987e-01
1.449999999999999900e-01
1.660000000000000087e-01
2.069999999999999896e-01
2.489999999999999991e-01
1.660000000000000087e-01
1.859999999999999987e-01
1.859999999999999987e-01
1.859999999999999987e-01
1.859999999999999987e-01
1.660000000000000087e-01
1.660000000000000087e-01
2.069999999999999896e-01
2.690000000000000169e-01
4.969999999999999973e-01
1.859999999999999987e-01
1.660000000000000087e-01
2.690000000000000169e-01
1.660000000000000087e-01
2.489999999999999991e-01
1.859999999999999987e-01
1.660000000000000087e-01
1.449999999999999900e-01
2.069999999999999896e-01
1.859999999999999987e-01
1.859999999999999987e-01
1.859999999999999987e-01
1.660000000000000087e-01
2.280000000000000082e-01
3.940000000000000169e-01
2.489999999999999991e-01
1.859999999999999987e-01
1.859999999999999987e-01
1.859999999999999987e-01
1.859999999999999987e-01
2.899999999999999800e-01
2.069999999999999896e-01
2.690000000000000169e-01
2.069999999999999896e-01
1.859999999999999987e-01
2.069999999999999896e-01
2.280000000000000082e-01
1.660000000000000087e-01
3.109999999999999987e-01
2.489999999999999991e-01
1.660000000000000087e-01
2.069999999999999896e-01
1.859999999999999987e-01
2.069999999999999896e-01
1.660000000000000087e-01
1.660000000000000087e-01
1.660000000000000087e-01
1.859999999999999987e-01
2.069999999999999896e-01
2.280000000000000082e-01
2.069999999999999896e-01
1.859999999999999987e-01
2.899999999999999800e-01
2.690000000000000169e-01
1.660000000000000087e-01
2.280000000000000082e-01
2.069999999999999896e-01
1.660000000000000087e-01
2.280000000000000082e-01
2.280000000000000082e-01
2.069999999999999896e-01
1.859999999999999987e-01
2.069999999999999896e-01
1.660000000000000087e-01
1.859999999999999987e-01
2.899999999999999800e-01
1.859999999999999987e-01
3.729999999999999982e-01
2.690000000000000169e-01
2.489999999999999991e-01
2.069999999999999896e-01
1.859999999999999987e-01
2.069999999999999896e-01
2.069999999999999896e-01
2.489999999999999991e-01
2.069999999999999896e-01
2.489999999999999991e-01
2.280000000000000082e-01
1.660000000000000087e-01
2.280000000000000082e-01
2.280000000000000082e-01
1.859999999999999987e-01
1.859999999999999987e-01
3.729999999999999982e-01
3.310000000000000164e-01
1.859999999999999987e-01
1.859999999999999987e-01
1.449999999999999900e-01
2.069999999999999896e-01
2.280000000000000082e-01
1.660000000000000087e-01
1.859999999999999987e-01
2.690000000000000169e-01
1.449999999999999900e-01
2.069999999999999896e-01
2.280000000000000082e-01
1.660000000000000087e-01
1.859999999999999987e-01
1.859999999999999987e-01
3.940000000000000169e-01
1.660000000000000087e-01
2.690000000000000169e-01
1.859999999999999987e-01
2.690000000000000169e-01
2.489999999999999991e-01
2.280000000000000082e-01
2.489999999999999991e-01
1.660000000000000087e-01
2.280000000000000082e-01
1.449999999999999900e-01
2.489999999999999991e-01
3.310000000000000164e-01
3.940000000000000169e-01
3.940000000000000169e-01
3.519999999999999796e-01
2.489999999999999991e-01
1.859999999999999987e-01
2.069999999999999896e-01
1.859999999999999987e-01
1.859999999999999987e-01
2.069999999999999896e-01
2.069999999999999896e-01
2.069999999999999896e-01
1.239999999999999991e-01
2.069999999999999896e-01
2.069999999999999896e-01
1.859999999999999987e-01
2.069999999999999896e-01
3.729999999999999982e-01
1.449999999999999900e-01
1.859999999999999987e-01
2.069999999999999896e-01
2.280000000000000082e-01
1.859999999999999987e-01
1.660000000000000087e-01
2.069999999999999896e-01
1.660000000000000087e-01
1.859999999999999987e-01
2.069999999999999896e-01
1.660000000000000087e-01
1.660000000000000087e-01
1.449999999999999900e-01
3.940000000000000169e-01
2.069999999999999896e-01
2.280000000000000082e-01
2.280000000000000082e-01
1.859999999999999987e-01
1.859999999999999987e-01
1.239999999999999991e-01
2.489999999999999991e-01
1.859999999999999987e-01
1.449999999999999900e-01
1.859999999999999987e-01
1.660000000000000087e-01
2.489999999999999991e-01
1.449999999999999900e-01
1.859999999999999987e-01
3.940000000000000169e-01
2.069999999999999896e-01
2.280000000000000082e-01
1.449999999999999900e-01
2.069999999999999896e-01
1.449999999999999900e-01
1.449999999999999900e-01
1.039999999999999952e-01
1.449999999999999900e-01
1.449999999999999900e-01
2.069999999999999896e-01
1.449999999999999900e-01
1.859999999999999987e-01
2.069999999999999896e-01
2.489999999999999991e-01
3.940000000000000169e-01
2.280000000000000082e-01
1.660000000000000087e-01
1.859999999999999987e-01
1.859999999999999987e-01
2.899999999999999800e-01
2.069999999999999896e-01
1.660000000000000087e-01
1.239999999999999991e-01
1.859999999999999987e-01
2.069999999999999896e-01
2.280000000000000082e-01
2.069999999999999896e-01
2.899999999999999800e-01
3.109999999999999987e-01
1.859999999999999987e-01
1.859999999999999987e-01
2.069999999999999896e-01
1.859999999999999987e-01
2.069999999999999896e-01
2.069999999999999896e-01
1.660000000000000087e-01
1.449999999999999900e-01
1.449999999999999900e-01
1.449999999999999900e-01
2.280000000000000082e-01
2.690000000000000169e-01
3.729999999999999982e-01
1.449999999999999900e-01
2.489999999999999991e-01
2.690000000000000169e-01
2.489999999999999991e-01
1.660000000000000087e-01
1.859999999999999987e-01
1.859999999999999987e-01
2.280000000000000082e-01
1.859999999999999987e-01
2.280000000000000082e-01
1.859999999999999987e-01
2.069999999999999896e-01
4.349999999999999978e-01
2.069999999999999896e-01
2.069999999999999896e-01
1.449999999999999900e-01
1.859999999999999987e-01
1.859999999999999987e-01
2.069999999999999896e-01
2.489999999999999991e-01
1.859999999999999987e-01
1.449999999999999900e-01
2.069999999999999896e-01
2.280000000000000082e-01
2.069999999999999896e-01
1.859999999999999987e-01
2.280000000000000082e-01
3.519999999999999796e-01
3.729999999999999982e-01
2.069999999999999896e-01
2.069999999999999896e-01
1.239999999999999991e-01
1.449999999999999900e-01
2.280000000000000082e-01
2.069999999999999896e-01
1.449999999999999900e-01
1.660000000000000087e-01
1.239999999999999991e-01
2.069999999999999896e-01
1.859999999999999987e-01
3.310000000000000164e-01
2.690000000000000169e-01
2.280000000000000082e-01
5.180000000000000160e-01
1.660000000000000087e-01
1.859999999999999987e-01
2.069999999999999896e-01
2.069999999999999896e-01
2.899999999999999800e-01
1.449999999999999900e-01
2.280000000000000082e-01
2.489999999999999991e-01
2.280000000000000082e-01
1.859999999999999987e-01
2.280000000000000082e-01
2.069999999999999896e-01
1.660000000000000087e-01
1.449999999999999900e-01
2.899999999999999800e-01
4.139999999999999791e-01
2.489999999999999991e-01
1.660000000000000087e-01
2.280000000000000082e-01
2.069999999999999896e-01
1.859999999999999987e-01
1.859999999999999987e-01
1.859999999999999987e-01
1.449999999999999900e-01
2.069999999999999896e-01
2.489999999999999991e-01
1.449999999999999900e-01
1.859999999999999987e-01
1.859999999999999987e-01
3.310000000000000164e-01
2.899999999999999800e-01
1.660000000000000087e-01
1.859999999999999987e-01
2.280000000000000082e-01
2.489999999999999991e-01
1.859999999999999987e-01
1.449999999999999900e-01
2.280000000000000082e-01
1.859999999999999987e-01
2.069999999999999896e-01
1.859999999999999987e-01
1.660000000000000087e-01
1.449999999999999900e-01
2.489999999999999991e-01
3.109999999999999987e-01
1.660000000000000087e-01
1.239999999999999991e-01
1.449999999999999900e-01
1.239999999999999991e-01
2.280000000000000082e-01
1.859999999999999987e-01
1.859999999999999987e-01
2.069999999999999896e-01
1.859999999999999987e-01
2.069999999999999896e-01
2.690000000000000169e-01
2.690000000000000169e-01
2.899999999999999800e-01
3.109999999999999987e-01
1.660000000000000087e-01
2.280000000000000082e-01
2.280000000000000082e-01
1.660000000000000087e-01
2.069999999999999896e-01
1.660000000000000087e-01
2.069999999999999896e-01
1.660000000000000087e-01
1.660000000000000087e-01
1.660000000000000087e-01
1.660000000000000087e-01
2.280000000000000082e-01
2.899999999999999800e-01
1.859999999999999987e-01
4.349999999999999978e-01
1.660000000000000087e-01
1.660000000000000087e-01
1.239999999999999991e-01
1.660000000000000087e-01
2.280000000000000082e-01
2.069999999999999896e-01
1.660000000000000087e-01
1.859999999999999987e-01
2.280000000000000082e-01
2.069999999999999896e-01
1.449999999999999900e-01
1.449999999999999900e-01
3.519999999999999796e-01
2.690000000000000169e-01
2.899999999999999800e-01
2.489999999999999991e-01
1.859999999999999987e-01
1.449999999999999900e-01
2.069999999999999896e-01
1.859999999999999987e-01
1.660000000000000087e-01
1.859999999999999987e-01
1.660000000000000087e-01
1.859999999999999987e-01
1.660000000000000087e-01
2.069999999999999896e-01
1.449999999999999900e-01
1.449999999999999900e-01
1.859999999999999987e-01
2.069999999999999896e-01
2.899999999999999800e-01
3.729999999999999982e-01
2.690000000000000169e-01
2.280000000000000082e-01
2.069999999999999896e-01
2.069999999999999896e-01
1.449999999999999900e-01
1.449999999999999900e-01
2.069999999999999896e-01
1.859999999999999987e-01
2.489999999999999991e-01
2.069999999999999896e-01
1.660000000000000087e-01
1.859999999999999987e-01
1.660000000000000087e-01
3.519999999999999796e-01
1.859999999999999987e-01
1.859999999999999987e-01
2.489999999999999991e-01
1.660000000000000087e-01
1.239999999999999991e-01
1.859999999999999987e-01
2.069999999999999896e-01
2.069999999999999896e-01
2.069999999999999896e-01
1.449999999999999900e-01
1.449999999999999900e-01
1.660000000000000087e-01
3.310000000000000164e-01
3.729999999999999982e-01
1.449999999999999900e-01
1.859999999999999987e-01
2.069999999999999896e-01
1.859999999999999987e-01
1.449999999999999900e-01
1.859999999999999987e-01
2.069999999999999896e-01
1.660000000000000087e-01
1.859999999999999987e-01
1.449999999999999900e-01
1.859999999999999987e-01
2.690000000000000169e-01
2.690000000000000169e-01
4.769999999999999796e-01
2.069999999999999896e-01
2.899999999999999800e-01
1.660000000000000087e-01
2.069999999999999896e-01
2.489999999999999991e-01
1.449999999999999900e-01
2.069999999999999896e-01
1.449999999999999900e-01
2.069999999999999896e-01
1.660000000000000087e-01
1.449999999999999900e-01
1.660000000000000087e-01
2.069999999999999896e-01
2.069999999999999896e-01
3.729999999999999982e-01
2.690000000000000169e-01
1.449999999999999900e-01
1.859999999999999987e-01
1.660000000000000087e-01
1.660000000000000087e-01
2.069999999999999896e-01
1.449999999999999900e-01
2.690000000000000169e-01
1.859999999999999987e-01
1.660000000000000087e-01
2.069999999999999896e-01
1.239999999999999991e-01
2.489999999999999991e-01
2.489999999999999991e-01
3.310000000000000164e-01
3.940000000000000169e-01
1.859999999999999987e-01
2.069999999999999896e-01
1.859999999999999987e-01
1.449999999999999900e-01
2.069999999999999896e-01
2.280000000000000082e-01
2.069999999999999896e-01
1.859999999999999987e-01
1.660000000000000087e-01
2.069999999999999896e-01
2.489999999999999991e-01
2.069999999999999896e-01
2.069999999999999896e-01
3.519999999999999796e-01
2.280000000000000082e-01
1.660000000000000087e-01
2.280000000000000082e-01
1.859999999999999987e-01
2.069999999999999896e-01
1.859999999999999987e-01
2.069999999999999896e-01
2.280000000000000082e-01
2.069999999999999896e-01
1.660000000000000087e-01
2.280000000000000082e-01
1.859999999999999987e-01
3.310000000000000164e-01
2.069999999999999896e-01
2.069999999999999896e-01
1.660000000000000087e-01
2.069999999999999896e-01
2.489999999999999991e-01
1.660000000000000087e-01
1.660000000000000087e-01
2.069999999999999896e-01
2.069999999999999896e-01
2.280000000000000082e-01
1.449999999999999900e-01
3.310000000000000164e-01
4.769999999999999796e-01
2.280000000000000082e-01
2.280000000000000082e-01
2.069999999999999896e-01
2.069999999999999896e-01
3.109999999999999987e-01
1.449999999999999900e-01
1.859999999999999987e-01
1.859999999999999987e-01
1.859999999999999987e-01
1.859999999999999987e-01
1.859999999999999987e-01
1.859999999999999987e-01
3.940000000000000169e-01
2.899999999999999800e-01
1.449999999999999900e-01
1.449999999999999900e-01
2.280000000000000082e-01
1.859999999999999987e-01
1.859999999999999987e-01
2.280000000000000082e-01
2.280000000000000082e-01
2.069999999999999896e-01
2.280000000000000082e-01
1.449999999999999900e-01
2.069999999999999896e-01
2.280000000000000082e-01
3.519999999999999796e-01
1.859999999999999987e-01
2.690000000000000169e-01
1.449999999999999900e-01
1.660000000000000087e-01
1.660000000000000087e-01
2.069999999999999896e-01
2.069999999999999896e-01
2.489999999999999991e-01
1.660000000000000087e-01
2.489999999999999991e-01
1.660000000000000087e-01
1.859999999999999987e-01
1.859999999999999987e-01
3.519999999999999796e-01
2.690000000000000169e-01
1.660000000000000087e-01
1.859999999999999987e-01
1.660000000000000087e-01
2.069999999999999896e-01
2.280000000000000082e-01
1.660000000000000087e-01
2.690000000000000169e-01
2.069999999999999896e-01
1.449999999999999900e-01
2.069999999999999896e-01
2.280000000000000082e-01
1.859999999999999987e-01
2.280000000000000082e-01
4.139999999999999791e-01
2.069999999999999896e-01
3.109999999999999987e-01
1.239999999999999991e-01
1.660000000000000087e-01
2.690000000000000169e-01
1.449999999999999900e-01
1.660000000000000087e-01
2.690000000000000169e-01
1.660000000000000087e-01
2.069999999999999896e-01
1.859999999999999987e-01
2.069999999999999896e-01
1.449999999999999900e-01
2.280000000000000082e-01
3.310000000000000164e-01
1.859999999999999987e-01
2.069999999999999896e-01
1.449999999999999900e-01
2.069999999999999896e-01
1.859999999999999987e-01
2.280000000000000082e-01
1.660000000000000087e-01
2.489999999999999991e-01
1.449999999999999900e-01
2.489999999999999991e-01
2.069999999999999896e-01
2.280000000000000082e-01
2.489999999999999991e-01
1.859999999999999987e-01
4.769999999999999796e-01
2.069999999999999896e-01
1.859999999999999987e-01
1.449999999999999900e-01
2.069999999999999896e-01
1.660000000000000087e-01
1.859999999999999987e-01
1.859999999999999987e-01
1.449999999999999900e-01
1.449999999999999900e-01
2.069999999999999896e-01
2.069999999999999896e-01
1.859999999999999987e-01
1.660000000000000087e-01
2.069999999999999896e-01
2.069999999999999896e-01
3.519999999999999796e-01
2.280000000000000082e-01
2.280000000000000082e-01
2.280000000000000082e-01
1.660000000000000087e-01
2.280000000000000082e-01
2.489999999999999991e-01
2.280000000000000082e-01
1.660000000000000087e-01
1.859999999999999987e-01
1.660000000000000087e-01
1.660000000000000087e-01
1.859999999999999987e-01
1.660000000000000087e-01
1.039999999999999952e-01
1.449999999999999900e-01
1.449999999999999900e-01
2.899999999999999800e-01
3.729999999999999982e-01
2.280000000000000082e-01
1.859999999999999987e-01
1.859999999999999987e-01
1.859999999999999987e-01
2.069999999999999896e-01
1.859999999999999987e-01
1.660000000000000087e-01
1.859999999999999987e-01
2.280000000000000082e-01
2.489999999999999991e-01
1.660000000000000087e-01
1.859999999999999987e-01
2.069999999999999896e-01
1.859999999999999987e-01
2.069999999999999896e-01
1.449999999999999900e-01
3.729999999999999982e-01
2.280000000000000082e-01
1.859999999999999987e-01
1.449999999999999900e-01
1.859999999999999987e-01
1.859999999999999987e-01
2.280000000000000082e-01
1.660000000000000087e-01
1.449999999999999900e-01
1.660000000000000087e-01
2.489999999999999991e-01
2.280000000000000082e-01
2.069999999999999896e-01
2.489999999999999991e-01
2.280000000000000082e-01
2.280000000000000082e-01
3.729999999999999982e-01
2.069999999999999896e-01
1.660000000000000087e-01
2.069999999999999896e-01
2.069999999999999896e-01
1.660000000000000087e-01
1.859999999999999987e-01
1.660000000000000087e-01
1.859999999999999987e-01
2.069999999999999896e-01
2.069999999999999896e-01
1.449999999999999900e-01
1.859999999999999987e-01
1.449999999999999900e-01
2.899999999999999800e-01
2.899999999999999800e-01
1.449999999999999900e-01
1.449999999999999900e-01
2.280000000000000082e-01
1.859999999999999987e-01
1.859999999999999987e-01
1.660000000000000087e-01
1.859999999999999987e-01
2.280000000000000082e-01
2.690000000000000169e-01
2.489999999999999991e-01
1.660000000000000087e-01
2.489999999999999991e-01
2.280000000000000082e-01
3.310000000000000164e-01
2.899999999999999800e-01
1.660000000000000087e-01
1.449999999999999900e-01
1.449999999999999900e-01
1.449999999999999900e-01
2.069999999999999896e-01
2.899999999999999800e-01
2.069999999999999896e-01
1.859999999999999987e-01
2.280000000000000082e-01
1.239999999999999991e-01
1.660000000000000087e-01
2.069999999999999896e-01
1.660000000000000087e-01
1.660000000000000087e-01
2.069999999999999896e-01
3.940000000000000169e-01
4.349999999999999978e-01
2.069999999999999896e-01
2.280000000000000082e-01
1.449999999999999900e-01
1.239999999999999991e-01
1.859999999999999987e-01
1.449999999999999900e-01
1.449999999999999900e-01
1.859999999999999987e-01
2.280000000000000082e-01
2.489999999999999991e-01
2.280000000000000082e-01
2.069999999999999896e-01
2.280000000000000082e-01
2.280000000000000082e-01
3.519999999999999796e-01
3.940000000000000169e-01
2.069999999999999896e-01
1.660000000000000087e-01
2.069999999999999896e-01
2.069999999999999896e-01
1.859999999999999987e-01
1.859999999999999987e-01
1.660000000000000087e-01
2.069999999999999896e-01
1.449999999999999900e-01
1.449999999999999900e-01
1.239999999999999991e-01
1.859999999999999987e-01
1.660000000000000087e-01
1.859999999999999987e-01
2.690000000000000169e-01
2.899999999999999800e-01
1.449999999999999900e-01
2.690000000000000169e-01
2.069999999999999896e-01
1.859999999999999987e-01
2.069999999999999896e-01
1.660000000000000087e-01
1.660000000000000087e-01
2.280000000000000082e-01
1.859999999999999987e-01
2.280000000000000082e-01
1.859999999999999987e-01
1.859999999999999987e-01
2.489999999999999991e-01
3.310000000000000164e-01
2.280000000000000082e-01
2.069999999999999896e-01
1.239999999999999991e-01
1.859999999999999987e-01
1.660000000000000087e-01
1.660000000000000087e-01
2.069999999999999896e-01
1.660000000000000087e-01
1.859999999999999987e-01
1.660000000000000087e-01
3.109999999999999987e-01
2.280000000000000082e-01
3.940000000000000169e-01
3.519999999999999796e-01
1.859999999999999987e-01
1.859999999999999987e-01
2.489999999999999991e-01
1.660000000000000087e-01
2.280000000000000082e-01
1.859999999999999987e-01
2.280000000000000082e-01
1.859999999999999987e-01
1.660000000000000087e-01
1.449999999999999900e-01
2.899999999999999800e-01
1.859999999999999987e-01
2.899999999999999800e-01
5.799999999999999600e-01
1.449999999999999900e-01
2.690000000000000169e-01
1.660000000000000087e-01
2.069999999999999896e-01
1.660000000000000087e-01
2.489999999999999991e-01
1.859999999999999987e-01
2.899999999999999800e-01
1.660000000000000087e-01
1.859999999999999987e-01
3.310000000000000164e-01
1.449999999999999900e-01
1.449999999999999900e-01
2.069999999999999896e-01
2.489999999999999991e-01
3.519999999999999796e-01
2.280000000000000082e-01
1.449999999999999900e-01
1.859999999999999987e-01
1.859999999999999987e-01
1.449999999999999900e-01
2.069999999999999896e-01
2.489999999999999991e-01
1.449999999999999900e-01
2.690000000000000169e-01
2.489999999999999991e-01
1.449999999999999900e-01
1.859999999999999987e-01
2.069999999999999896e-01
2.489999999999999991e-01
2.690000000000000169e-01
3.109999999999999987e-01
2.280000000000000082e-01
2.489999999999999991e-01
1.859999999999999987e-01
1.660000000000000087e-01
2.280000000000000082e-01
2.280000000000000082e-01
2.280000000000000082e-01
1.239999999999999991e-01
1.239999999999999991e-01
1.859999999999999987e-01
2.489999999999999991e-01
2.690000000000000169e-01
1.859999999999999987e-01
3.940000000000000169e-01
2.690000000000000169e-01
1.859999999999999987e-01
1.660000000000000087e-01
1.449999999999999900e-01
2.069999999999999896e-01
2.489999999999999991e-01
2.069999999999999896e-01
1.859999999999999987e-01
1.449999999999999900e-01
1.660000000000000087e-01
2.280000000000000082e-01
1.660000000000000087e-01
2.690000000000000169e-01
3.729999999999999982e-01
2.069999999999999896e-01
1.660000000000000087e-01
1.859999999999999987e-01
1.660000000000000087e-01
2.280000000000000082e-01
2.280000000000000082e-01
1.859999999999999987e-01
1.859999999999999987e-01
2.280000000000000082e-01
1.660000000000000087e-01
1.859999999999999987e-01
3.310000000000000164e-01
3.310000000000000164e-01
1.239999999999999991e-01
2.489999999999999991e-01
1.660000000000000087e-01
2.280000000000000082e-01
2.069999999999999896e-01
1.660000000000000087e-01
2.069999999999999896e-01
2.280000000000000082e-01
1.660000000000000087e-01
2.280000000000000082e-01
2.280000000000000082e-01
3.310000000000000164e-01
3.519999999999999796e-01
2.069999999999999896e-01
1.660000000000000087e-01
3.729999999999999982e-01
1.859999999999999987e-01
1.660000000000000087e-01
2.489999999999999991e-01
1.660000000000000087e-01
1.859999999999999987e-01
1.449999999999999900e-01
1.449999999999999900e-01
2.069999999999999896e-01
2.069999999999999896e-01
2.280000000000000082e-01
3.729999999999999982e-01
3.310000000000000164e-01
2.489999999999999991e-01
1.660000000000000087e-01
2.069999999999999896e-01
1.660000000000000087e-01
1.660000000000000087e-01
2.069999999999999896e-01
1.660000000000000087e-01
2.069999999999999896e-01
2.489999999999999991e-01
2.280000000000000082e-01
2.280000000000000082e-01
1.449999999999999900e-01
2.690000000000000169e-01
2.489999999999999991e-01
4.560000000000000164e-01
2.899999999999999800e-01
1.449999999999999900e-01
2.489999999999999991e-01
1.449999999999999900e-01
2.280000000000000082e-01
1.660000000000000087e-01
2.280000000000000082e-01
2.280000000000000082e-01
1.660000000000000087e-01
2.069999999999999896e-01
2.280000000000000082e-01
2.489999999999999991e-01
1.449999999999999900e-01
3.729999999999999982e-01
2.899999999999999800e-01
1.859999999999999987e-01
2.489999999999999991e-01
1.239999999999999991e-01
2.280000000000000082e-01
2.280000000000000082e-01
1.859999999999999987e-01
1.039999999999999952e-01
2.069999999999999896e-01
2.069999999999999896e-01
2.280000000000000082e-01
2.280000000000000082e-01
1.660000000000000087e-01
2.069999999999999896e-01
3.519999999999999796e-01
2.899999999999999800e-01
1.859999999999999987e-01
1.449999999999999900e-01
1.859999999999999987e-01
2.899999999999999800e-01
1.859999999999999987e-01
2.489999999999999991e-01
2.280000000000000082e-01
1.859999999999999987e-01
2.069999999999999896e-01
1.859999999999999987e-01
1.859999999999999987e-01
2.489999999999999991e-01
3.310000000000000164e-01
2.489999999999999991e-01
2.280000000000000082e-01
1.660000000000000087e-01
2.690000000000000169e-01
2.489999999999999991e-01
2.280000000000000082e-01
1.660000000000000087e-01
2.280000000000000082e-01
2.069999999999999896e-01
2.069999999999999896e-01
2.280000000000000082e-01
3.109999999999999987e-01
3.940000000000000169e-01
2.069999999999999896e-01
1.859999999999999987e-01
2.069999999999999896e-01
1.660000000000000087e-01
2.069999999999999896e-01
2.280000000000000082e-01
2.280000000000000082e-01
1.449999999999999900e-01
2.069999999999999896e-01
1.859999999999999987e-01
1.859999999999999987e-01
1.660000000000000087e-01
2.280000000000000082e-01
2.690000000000000169e-01
3.109999999999999987e-01
2.280000000000000082e-01
1.859999999999999987e-01
2.690000000000000169e-01
2.069999999999999896e-01
1.660000000000000087e-01
2.690000000000000169e-01
1.859999999999999987e-01
1.859999999999999987e-01
2.069999999999999896e-01
1.239999999999999991e-01
1.859999999999999987e-01
1.449999999999999900e-01
2.069999999999999896e-01
1.449999999999999900e-01
3.310000000000000164e-01
2.489999999999999991e-01
1.859999999999999987e-01
1.660000000000000087e-01
1.660000000000000087e-01
1.660000000000000087e-01
1.660000000000000087e-01
1.859999999999999987e-01
1.449999999999999900e-01
2.069999999999999896e-01
1.660000000000000087e-01
1.660000000000000087e-01
1.859999999999999987e-01
2.069999999999999896e-01
3.109999999999999987e-01
3.109999999999999987e-01
2.489999999999999991e-01
1.660000000000000087e-01
2.489999999999999991e-01
2.069999999999999896e-01
2.280000000000000082e-01
1.859999999999999987e-01
1.660000000000000087e-01
2.069999999999999896e-01
2.280000000000000082e-01
2.280000000000000082e-01
2.280000000000000082e-01
2.690000000000000169e-01
3.310000000000000164e-01
2.069999999999999896e-01
2.069999999999999896e-01
1.660000000000000087e-01
2.280000000000000082e-01
1.859999999999999987e-01
2.280000000000000082e-01
2.489999999999999991e-01
2.899999999999999800e-01
2.069999999999999896e-01
2.069999999999999896e-01
2.280000000000000082e-01
1.859999999999999987e-01
3.310000000000000164e-01
3.109999999999999987e-01
2.069999999999999896e-01
1.859999999999999987e-01
2.489999999999999991e-01
2.489999999999999991e-01
1.859999999999999987e-01
2.489999999999999991e-01
2.280000000000000082e-01
2.280000000000000082e-01
2.280000000000000082e-01
1.660000000000000087e-01
2.069999999999999896e-01
2.280000000000000082e-01
1.859999999999999987e-01
3.519999999999999796e-01
1.859999999999999987e-01
2.069999999999999896e-01
1.660000000000000087e-01
1.449999999999999900e-01
1.449999999999999900e-01
1.859999999999999987e-01
2.489999999999999991e-01
1.859999999999999987e-01
1.859999999999999987e-01
2.069999999999999896e-01
1.859999999999999987e-01
1.660000000000000087e-01
2.069999999999999896e-01
2.280000000000000082e-01
2.280000000000000082e-01
2.899999999999999800e-01
2.489999999999999991e-01
1.859999999999999987e-01
2.280000000000000082e-01
1.660000000000000087e-01
2.690000000000000169e-01
2.069999999999999896e-01
1.660000000000000087e-01
1.859999999999999987e-01
2.280000000000000082e-01
1.660000000000000087e-01
2.069999999999999896e-01
2.489999999999999991e-01
2.899999999999999800e-01
3.729999999999999982e-01
2.280000000000000082e-01
2.280000000000000082e-01
1.859999999999999987e-01
1.660000000000000087e-01
2.069999999999999896e-01
1.859999999999999987e-01
1.449999999999999900e-01
2.069999999999999896e-01
2.069999999999999896e-01
2.069999999999999896e-01
1.859999999999999987e-01
3.519999999999999796e-01
3.109999999999999987e-01
2.280000000000000082e-01
1.660000000000000087e-01
2.899999999999999800e-01
2.280000000000000082e-01
2.280000000000000082e-01
2.489999999999999991e-01
1.660000000000000087e-01
2.280000000000000082e-01
2.489999999999999991e-01
1.449999999999999900e-01
2.690000000000000169e-01
1.660000000000000087e-01
4.139999999999999791e-01
2.069999999999999896e-01
2.690000000000000169e-01
1.660000000000000087e-01
2.280000000000000082e-01
1.239999999999999991e-01
3.109999999999999987e-01
2.280000000000000082e-01
1.449999999999999900e-01
1.660000000000000087e-01
1.859999999999999987e-01
1.859999999999999987e-01
2.489999999999999991e-01
2.069999999999999896e-01
3.310000000000000164e-01
3.940000000000000169e-01
1.660000000000000087e-01
2.489999999999999991e-01
2.069999999999999896e-01
2.069999999999999896e-01
1.859999999999999987e-01
2.489999999999999991e-01
1.239999999999999991e-01
2.690000000000000169e-01
1.239999999999999991e-01
1.660000000000000087e-01
1.660000000000000087e-01
1.660000000000000087e-01
2.690000000000000169e-01
3.519999999999999796e-01
2.069999999999999896e-01
1.449999999999999900e-01
2.069999999999999896e-01
2.280000000000000082e-01
2.280000000000000082e-01
2.069999999999999896e-01
1.239999999999999991e-01
1.660000000000000087e-01
1.660000000000000087e-01
1.660000000000000087e-01
1.859999999999999987e-01
2.899999999999999800e-01
4.139999999999999791e-01
2.069999999999999896e-01
2.069999999999999896e-01
2.069999999999999896e-01
2.069999999999999896e-01
2.069999999999999896e-01
2.690000000000000169e-01
1.660000000000000087e-01
2.489999999999999991e-01
1.660000000000000087e-01
2.280000000000000082e-01
1.660000000000000087e-01
3.519999999999999796e-01
3.940000000000000169e-01
2.690000000000000169e-01
1.660000000000000087e-01
2.069999999999999896e-01
1.660000000000000087e-01
2.280000000000000082e-01
1.660000000000000087e-01
2.489999999999999991e-01
1.859999999999999987e-01
1.859999999999999987e-01
2.069999999999999896e-01
2.899999999999999800e-01
1.859999999999999987e-01
2.069999999999999896e-01
1.859999999999999987e-01
1.239999999999999991e-01
1.449999999999999900e-01
2.489999999999999991e-01
2.489999999999999991e-01
2.069999999999999896e-01
1.239999999999999991e-01
1.859999999999999987e-01
1.239999999999999991e-01
2.489999999999999991e-01
1.660000000000000087e-01
1.859999999999999987e-01
1.859999999999999987e-01
2.069999999999999896e-01
3.519999999999999796e-01
3.940000000000000169e-01
1.859999999999999987e-01
2.690000000000000169e-01
1.660000000000000087e-01
2.069999999999999896e-01
1.859999999999999987e-01
2.069999999999999896e-01
1.859999999999999987e-01
2.280000000000000082e-01
2.489999999999999991e-01
1.859999999999999987e-01
2.280000000000000082e-01
2.069999999999999896e-01
1.859999999999999987e-01
3.310000000000000164e-01
3.940000000000000169e-01
1.859999999999999987e-01
2.069999999999999896e-01
1.449999999999999900e-01
1.859999999999999987e-01
1.660000000000000087e-01
2.690000000000000169e-01
1.859999999999999987e-01
1.449999999999999900e-01
2.280000000000000082e-01
1.660000000000000087e-01
2.280000000000000082e-01
1.660000000000000087e-01
3.940000000000000169e-01
2.069999999999999896e-01
1.449999999999999900e-01
2.280000000000000082e-01
2.899999999999999800e-01
2.069999999999999896e-01
1.859999999999999987e-01
1.859999999999999987e-01
1.660000000000000087e-01
2.069999999999999896e-01
1.859999999999999987e-01
1.449999999999999900e-01
2.489999999999999991e-01
1.859999999999999987e-01
3.729999999999999982e-01
2.489999999999999991e-01
2.069999999999999896e-01
1.859999999999999987e-01
1.660000000000000087e-01
1.660000000000000087e-01
1.859999999999999987e-01
2.069999999999999896e-01
1.449999999999999900e-01
1.449999999999999900e-01
1.859999999999999987e-01
1.449999999999999900e-01
1.660000000000000087e-01
1.859999999999999987e-01
1.859999999999999987e-01
3.519999999999999796e-01
4.139999999999999791e-01
1.859999999999999987e-01
1.859999999999999987e-01
1.660000000000000087e-01
2.069999999999999896e-01
2.069999999999999896e-01
2.489999999999999991e-01
1.859999999999999987e-01
1.449999999999999900e-01
2.069999999999999896e-01
1.859999999999999987e-01
1.859999999999999987e-01
1.660000000000000087e-01
2.280000000000000082e-01
3.310000000000000164e-01
3.519999999999999796e-01
2.280000000000000082e-01
2.069999999999999896e-01
2.069999999999999896e-01
2.069999999999999896e-01
2.069999999999999896e-01
2.489999999999999991e-01
1.859999999999999987e-01
1.660000000000000087e-01
3.109999999999999987e-01
1.859999999999999987e-01
1.660000000000000087e-01
1.660000000000000087e-01
2.489999999999999991e-01
3.519999999999999796e-01
2.690000000000000169e-01
1.449999999999999900e-01
2.069999999999999896e-01
1.859999999999999987e-01
2.690000000000000169e-01
1.859999999999999987e-01
2.069999999999999896e-01
2.069999999999999896e-01
1.449999999999999900e-01
1.449999999999999900e-01
2.690000000000000169e-01
1.859999999999999987e-01
1.859999999999999987e-01
3.940000000000000169e-01
1.660000000000000087e-01
2.280000000000000082e-01
1.859999999999999987e-01
1.859999999999999987e-01
2.069999999999999896e-01
2.069999999999999896e-01
2.069999999999999896e-01
2.069999999999999896e-01
2.069999999999999896e-01
1.660000000000000087e-01
1.660000000000000087e-01
3.519999999999999796e-01
2.280000000000000082e-01
3.940000000000000169e-01
1.660000000000000087e-01
2.069999999999999896e-01
2.069999999999999896e-01
2.069999999999999896e-01
1.660000000000000087e-01
2.489999999999999991e-01
1.859999999999999987e-01
1.449999999999999900e-01
2.069999999999999896e-01
1.039999999999999952e-01
2.069999999999999896e-01
1.449999999999999900e-01
1.239999999999999991e-01
4.769999999999999796e-01
2.280000000000000082e-01
2.069999999999999896e-01
2.489999999999999991e-01
1.660000000000000087e-01
1.859999999999999987e-01
1.660000000000000087e-01
1.859999999999999987e-01
1.859999999999999987e-01
2.280000000000000082e-01
1.859999999999999987e-01
1.449999999999999900e-01
2.069999999999999896e-01
2.069999999999999896e-01
3.109999999999999987e-01
2.899999999999999800e-01
1.859999999999999987e-01
1.449999999999999900e-01
2.280000000000000082e-01
1.859999999999999987e-01
1.859999999999999987e-01
2.690000000000000169e-01
2.069999999999999896e-01
2.489999999999999991e-01
1.660000000000000087e-01
2.280000000000000082e-01
1.859999999999999987e-01
3.310000000000000164e-01
3.109999999999999987e-01
1.859999999999999987e-01
1.859999999999999987e-01
2.069999999999999896e-01
2.069999999999999896e-01
1.660000000000000087e-01
2.899999999999999800e-01
1.660000000000000087e-01
2.069999999999999896e-01
1.449999999999999900e-01
1.859999999999999987e-01
2.690000000000000169e-01
2.690000000000000169e-01
4.769999999999999796e-01
1.859999999999999987e-01
2.489999999999999991e-01
1.449999999999999900e-01
2.069999999999999896e-01
2.690000000000000169e-01
1.039999999999999952e-01
2.069999999999999896e-01
1.859999999999999987e-01
2.069999999999999896e-01
2.069999999999999896e-01
2.899999999999999800e-01
1.660000000000000087e-01
3.109999999999999987e-01
4.139999999999999791e-01
1.239999999999999991e-01
1.660000000000000087e-01
1.859999999999999987e-01
1.859999999999999987e-01
1.859999999999999987e-01
2.280000000000000082e-01
2.069999999999999896e-01
2.069999999999999896e-01
1.449999999999999900e-01
2.069999999999999896e-01
1.660000000000000087e-01
2.069999999999999896e-01
1.859999999999999987e-01
2.280000000000000082e-01
4.139999999999999791e-01
1.859999999999999987e-01
2.069999999999999896e-01
1.239999999999999991e-01
2.489999999999999991e-01
2.489999999999999991e-01
2.489999999999999991e-01
1.660000000000000087e-01
2.069999999999999896e-01
2.489999999999999991e-01
1.859999999999999987e-01
1.449999999999999900e-01
1.859999999999999987e-01
3.940000000000000169e-01
2.069999999999999896e-01
1.660000000000000087e-01
1.859999999999999987e-01
1.859999999999999987e-01
1.239999999999999991e-01
1.660000000000000087e-01
2.069999999999999896e-01
2.069999999999999896e-01
2.069999999999999896e-01
1.859999999999999987e-01
2.069999999999999896e-01
2.069999999999999896e-01
2.069999999999999896e-01
3.109999999999999987e-01
1.660000000000000087e-01
1.660000000000000087e-01
1.859999999999999987e-01
1.449999999999999900e-01
2.069999999999999896e-01
1.859999999999999987e-01
2.069999999999999896e-01
1.859999999999999987e-01
2.280000000000000082e-01
1.859999999999999987e-01
1.660000000000000087e-01
2.899999999999999800e-01
2.489999999999999991e-01
2.489999999999999991e-01
3.519999999999999796e-01
1.660000000000000087e-01
1.859999999999999987e-01
2.280000000000000082e-01
2.280000000000000082e-01
1.859999999999999987e-01
2.280000000000000082e-01
2.069999999999999896e-01
1.859999999999999987e-01
1.660000000000000087e-01
2.280000000000000082e-01
1.859999999999999987e-01
2.280000000000000082e-01
3.310000000000000164e-01
3.310000000000000164e-01
2.690000000000000169e-01
1.660000000000000087e-01
2.069999999999999896e-01
2.489999999999999991e-01
1.660000000000000087e-01
2.489999999999999991e-01
1.859999999999999987e-01
1.859999999999999987e-01
1.660000000000000087e-01
1.859999999999999987e-01
2.280000000000000082e-01
2.489999999999999991e-01
3.519999999999999796e-01
2.690000000000000169e-01
1.859999999999999987e-01
2.280000000000000082e-01
2.069999999999999896e-01
2.489999999999999991e-01
1.859999999999999987e-01
2.280000000000000082e-01
1.449999999999999900e-01
2.069999999999999896e-01
1.859999999999999987e-01
2.069999999999999896e-01
2.280000000000000082e-01
2.280000000000000082e-01
2.899999999999999800e-01
3.310000000000000164e-01
2.489999999999999991e-01
1.859999999999999987e-01
1.660000000000000087e-01
1.239999999999999991e-01
1.449999999999999900e-01
1.859999999999999987e-01
1.859999999999999987e-01
1.859999999999999987e-01
1.859999999999999987e-01
1.859999999999999987e-01
1.660000000000000087e-01
1.660000000000000087e-01
1.660000000000000087e-01
4.560000000000000164e-01
3.729999999999999982e-01
2.280000000000000082e-01
1.859999999999999987e-01
1.859999999999999987e-01
1.660000000000000087e-01
2.280000000000000082e-01
2.280000000000000082e-01
2.690000000000000169e-01
1.859999999999999987e-01
2.069999999999999896e-01
1.859999999999999987e-01
2.899999999999999800e-01
2.280000000000000082e-01
3.310000000000000164e-01
2.899999999999999800e-01
2.690000000000000169e-01
1.449999999999999900e-01
1.859999999999999987e-01
1.449999999999999900e-01
1.859999999999999987e-01
1.859999999999999987e-01
2.069999999999999896e-01
2.069999999999999896e-01
1.859999999999999987e-01
1.859999999999999987e-01
1.859999999999999987e-01
2.489999999999999991e-01
3.940000000000000169e-01
1.660000000000000087e-01
1.239999999999999991e-01
1.859999999999999987e-01
1.859999999999999987e-01
1.660000000000000087e-01
1.859999999999999987e-01
1.449999999999999900e-01
2.489999999999999991e-01
1.239999999999999991e-01
1.660000000000000087e-01
2.489999999999999991e-01
1.449999999999999900e-01
1.859999999999999987e-01
4.139999999999999791e-01
2.069999999999999896e-01
2.069999999999999896e-01
2.690000000000000169e-01
2.069999999999999896e-01
2.690000000000000169e-01
2.489999999999999991e-01
2.489999999999999991e-01
1.859999999999999987e-01
1.660000000000000087e-01
1.660000000000000087e-01
1.660000000000000087e-01
1.660000000000000087e-01
2.489999999999999991e-01
2.899999999999999800e-01
4.769999999999999796e-01
2.489999999999999991e-01
2.069999999999999896e-01
1.859999999999999987e-01
2.069999999999999896e-01
2.069999999999999896e-01
2.069999999999999896e-01
1.660000000000000087e-01
1.859999999999999987e-01
2.489999999999999991e-01
2.280000000000000082e-01
1.859999999999999987e-01
1.660000000000000087e-01
1.660000000000000087e-01
2.489999999999999991e-01
3.940000000000000169e-01
1.239999999999999991e-01
1.859999999999999987e-01
2.690000000000000169e-01
1.660000000000000087e-01
2.069999999999999896e-01
1.859999999999999987e-01
1.660000000000000087e-01
1.859999999999999987e-01
2.489999999999999991e-01
2.069999999999999896e-01
3.310000000000000164e-01
2.069999999999999896e-01
2.069999999999999896e-01
4.769999999999999796e-01
2.069999999999999896e-01
2.069999999999999896e-01
1.449999999999999900e-01
2.280000000000000082e-01
1.859999999999999987e-01
1.449999999999999900e-01
2.069999999999999896e-01
1.660000000000000087e-01
1.859999999999999987e-01
1.449999999999999900e-01
2.280000000000000082e-01
2.069999999999999896e-01
1.660000000000000087e-01
2.899999999999999800e-01
3.109999999999999987e-01
1.449999999999999900e-01
1.660000000000000087e-01
2.069999999999999896e-01
1.859999999999999987e-01
2.069999999999999896e-01
1.859999999999999987e-01
1.449999999999999900e-01
1.859999999999999987e-01
2.069999999999999896e-01
1.449999999999999900e-01
2.899999999999999800e-01
1.859999999999999987e-01
1.449999999999999900e-01
2.280000000000000082e-01
4.769999999999999796e-01
2.489999999999999991e-01
2.280000000000000082e-01
2.069999999999999896e-01
1.859999999999999987e-01
2.280000000000000082e-01
1.660000000000000087e-01
1.859999999999999987e-01
2.690000000000000169e-01
1.859999999999999987e-01
1.660000000000000087e-01
1.859999999999999987e-01
1.449999999999999900e-01
2.069999999999999896e-01
1.660000000000000087e-01
1.660000000000000087e-01
3.519999999999999796e-01
2.690000000000000169e-01
2.069999999999999896e-01
1.660000000000000087e-01
2.280000000000000082e-01
1.859999999999999987e-01
1.449999999999999900e-01
2.069999999999999896e-01
2.489999999999999991e-01
1.449999999999999900e-01
2.280000000000000082e-01
1.660000000000000087e-01
1.239999999999999991e-01
1.449999999999999900e-01
2.069999999999999896e-01
2.899999999999999800e-01
4.139999999999999791e-01
1.859999999999999987e-01
1.859999999999999987e-01
2.069999999999999896e-01
2.069999999999999896e-01
1.859999999999999987e-01
1.660000000000000087e-01
1.660000000000000087e-01
2.069999999999999896e-01
2.690000000000000169e-01
2.280000000000000082e-01
1.449999999999999900e-01
2.489999999999999991e-01
2.280000000000000082e-01
4.139999999999999791e-01
2.899999999999999800e-01
2.489999999999999991e-01
2.069999999999999896e-01
1.449999999999999900e-01
1.859999999999999987e-01
1.449999999999999900e-01
2.899999999999999800e-01
1.859999999999999987e-01
1.859999999999999987e-01
1.660000000000000087e-01
2.069999999999999896e-01
2.690000000000000169e-01
2.899999999999999800e-01
3.729999999999999982e-01
1.660000000000000087e-01
1.859999999999999987e-01
1.660000000000000087e-01
2.280000000000000082e-01
1.660000000000000087e-01
2.899999999999999800e-01
1.660000000000000087e-01
2.069999999999999896e-01
1.660000000000000087e-01
2.489999999999999991e-01
2.280000000000000082e-01
2.489999999999999991e-01
3.519999999999999796e-01
2.690000000000000169e-01
2.069999999999999896e-01
1.239999999999999991e-01
2.899999999999999800e-01
2.489999999999999991e-01
1.239999999999999991e-01
1.859999999999999987e-01
1.859999999999999987e-01
2.069999999999999896e-01
1.859999999999999987e-01
2.069999999999999896e-01
1.449999999999999900e-01
1.449999999999999900e-01
2.069999999999999896e-01
3.729999999999999982e-01
3.940000000000000169e-01
1.859999999999999987e-01
2.069999999999999896e-01
1.660000000000000087e-01
1.859999999999999987e-01
1.449999999999999900e-01
1.449999999999999900e-01
2.069999999999999896e-01
1.859999999999999987e-01
1.449999999999999900e-01
2.280000000000000082e-01
1.660000000000000087e-01
1.859999999999999987e-01
1.660000000000000087e-01
2.280000000000000082e-01
3.940000000000000169e-01
1.449999999999999900e-01
2.069999999999999896e-01
1.859999999999999987e-01
1.449999999999999900e-01
1.859999999999999987e-01
1.449999999999999900e-01
1.449999999999999900e-01
2.280000000000000082e-01
2.069999999999999896e-01
2.489999999999999991e-01
2.280000000000000082e-01
2.069999999999999896e-01
2.069999999999999896e-01
3.310000000000000164e-01
1.660000000000000087e-01
1.859999999999999987e-01
1.859999999999999987e-01
1.859999999999999987e-01
1.449999999999999900e-01
2.069999999999999896e-01
1.859999999999999987e-01
1.660000000000000087e-01
1.859999999999999987e-01
1.859999999999999987e-01
1.239999999999999991e-01
1.660000000000000087e-01
3.109999999999999987e-01
3.519999999999999796e-01
2.069999999999999896e-01
1.859999999999999987e-01
2.489999999999999991e-01
1.859999999999999987e-01
1.859999999999999987e-01
1.660000000000000087e-01
2.690000000000000169e-01
1.660000000000000087e-01
1.859999999999999987e-01
1.449999999999999900e-01
1.859999999999999987e-01
2.489999999999999991e-01
3.310000000000000164e-01
1.859999999999999987e-01
2.280000000000000082e-01
1.660000000000000087e-01
2.069999999999999896e-01
2.690000000000000169e-01
2.489999999999999991e-01
2.280000000000000082e-01
2.069999999999999896e-01
2.280000000000000082e-01
2.069999999999999896e-01
1.859999999999999987e-01
1.859999999999999987e-01
2.280000000000000082e-01
3.940000000000000169e-01
1.859999999999999987e-01
1.859999999999999987e-01
1.859999999999999987e-01
2.069999999999999896e-01
1.859999999999999987e-01
2.489999999999999991e-01
2.069999999999999896e-01
2.069999999999999896e-01
1.859999999999999987e-01
3.109999999999999987e-01
2.489999999999999991e-01
2.069999999999999896e-01
1.660000000000000087e-01
2.690000000000000169e-01
4.349999999999999978e-01
1.859999999999999987e-01
2.069999999999999896e-01
2.489999999999999991e-01
2.069999999999999896e-01
1.239999999999999991e-01
1.859999999999999987e-01
1.859999999999999987e-01
2.280000000000000082e-01
1.660000000000000087e-01
1.859999999999999987e-01
1.859999999999999987e-01
1.660000000000000087e-01
2.280000000000000082e-01
2.690000000000000169e-01
3.109999999999999987e-01
3.310000000000000164e-01
1.239999999999999991e-01
2.280000000000000082e-01
1.660000000000000087e-01
1.859999999999999987e-01
1.449999999999999900e-01
2.280000000000000082e-01
1.859999999999999987e-01
1.449999999999999900e-01
1.449999999999999900e-01
1.449999999999999900e-01
1.859999999999999987e-01
1.239999999999999991e-01
1.660000000000000087e-01
2.899999999999999800e-01
3.109999999999999987e-01
2.489999999999999991e-01
1.859999999999999987e-01
2.069999999999999896e-01
2.069999999999999896e-01
1.660000000000000087e-01
1.449999999999999900e-01
1.660000000000000087e-01
1.660000000000000087e-01
1.859999999999999987e-01
2.069999999999999896e-01
2.280000000000000082e-01
1.859999999999999987e-01
2.489999999999999991e-01
4.560000000000000164e-01
1.859999999999999987e-01
1.859999999999999987e-01
1.660000000000000087e-01
2.069999999999999896e-01
1.859999999999999987e-01
2.069999999999999896e-01
2.280000000000000082e-01
2.069999999999999896e-01
2.069999999999999896e-01
2.069999999999999896e-01
1.859999999999999987e-01
2.280000000000000082e-01
3.109999999999999987e-01
2.069999999999999896e-01
2.069999999999999896e-01
2.489999999999999991e-01
2.069999999999999896e-01
2.899999999999999800e-01
1.660000000000000087e-01
2.069999999999999896e-01
2.069999999999999896e-01
2.069999999999999896e-01
2.690000000000000169e-01
2.069999999999999896e-01
2.069999999999999896e-01
3.109999999999999987e-01
2.899999999999999800e-01
2.069999999999999896e-01
2.069999999999999896e-01
1.449999999999999900e-01
1.660000000000000087e-01
1.239999999999999991e-01
2.069999999999999896e-01
1.660000000000000087e-01
2.069999999999999896e-01
1.449999999999999900e-01
1.859999999999999987e-01
1.449999999999999900e-01
1.859999999999999987e-01
2.690000000000000169e-01
5.180000000000000160e-01
1.859999999999999987e-01
2.489999999999999991e-01
2.069999999999999896e-01
1.449999999999999900e-01
1.449999999999999900e-01
2.489999999999999991e-01
1.859999999999999987e-01
1.660000000000000087e-01
1.660000000000000087e-01
1.660000000000000087e-01
1.859999999999999987e-01
1.859999999999999987e-01
1.239999999999999991e-01
1.239999999999999991e-01
2.899999999999999800e-01
3.310000000000000164e-01
2.069999999999999896e-01
1.449999999999999900e-01
2.069999999999999896e-01
1.660000000000000087e-01
2.280000000000000082e-01
2.280000000000000082e-01
1.449999999999999900e-01
1.660000000000000087e-01
2.069999999999999896e-01
1.859999999999999987e-01
2.069999999999999896e-01
2.899999999999999800e-01
2.280000000000000082e-01
1.449999999999999900e-01
3.109999999999999987e-01
2.690000000000000169e-01
1.660000000000000087e-01
2.280000000000000082e-01
2.489999999999999991e-01
2.690000000000000169e-01
1.859999999999999987e-01
2.489999999999999991e-01
2.489999999999999991e-01
2.069999999999999896e-01
2.489999999999999991e-01
1.859999999999999987e-01
2.489999999999999991e-01
2.069999999999999896e-01
2.489999999999999991e-01
3.109999999999999987e-01
2.690000000000000169e-01
2.280000000000000082e-01
2.280000000000000082e-01
2.280000000000000082e-01
1.660000000000000087e-01
2.280000000000000082e-01
1.449999999999999900e-01
1.449999999999999900e-01
1.859999999999999987e-01
1.239999999999999991e-01
1.660000000000000087e-01
2.069999999999999896e-01
1.859999999999999987e-01
1.859999999999999987e-01
2.899999999999999800e-01
1.449999999999999900e-01
2.899999999999999800e-01
2.280000000000000082e-01
1.660000000000000087e-01
2.069999999999999896e-01
2.069999999999999896e-01
2.280000000000000082e-01
2.489999999999999991e-01
1.859999999999999987e-01
1.660000000000000087e-01
1.859999999999999987e-01
2.899999999999999800e-01
4.349999999999999978e-01
3.310000000000000164e-01
2.489999999999999991e-01
2.280000000000000082e-01
2.899999999999999800e-01
1.660000000000000087e-01
1.660000000000000087e-01
1.449999999999999900e-01
1.859999999999999987e-01
1.449999999999999900e-01
1.859999999999999987e-01
2.280000000000000082e-01
1.859999999999999987e-01
2.280000000000000082e-01
3.729999999999999982e-01
2.280000000000000082e-01
1.859999999999999987e-01
1.859999999999999987e-01
1.859999999999999987e-01
2.280000000000000082e-01
1.859999999999999987e-01
2.069999999999999896e-01
2.069999999999999896e-01
1.660000000000000087e-01
1.660000000000000087e-01
2.489999999999999991e-01
2.069999999999999896e-01
3.729999999999999982e-01
3.109999999999999987e-01
1.660000000000000087e-01
1.449999999999999900e-01
1.239999999999999991e-01
1.660000000000000087e-01
1.660000000000000087e-01
2.489999999999999991e-01
2.069999999999999896e-01
2.069999999999999896e-01
2.280000000000000082e-01
2.069999999999999896e-01
1.859999999999999987e-01
1.449999999999999900e-01
1.449999999999999900e-01
2.069999999999999896e-01
3.109999999999999987e-01
3.729999999999999982e-01
2.069999999999999896e-01
2.280000000000000082e-01
1.660000000000000087e-01
2.069999999999999896e-01
2.280000000000000082e-01
2.069999999999999896e-01
2.280000000000000082e-01
1.660000000000000087e-01
1.449999999999999900e-01
1.859999999999999987e-01
1.859999999999999987e-01
2.280000000000000082e-01
1.859999999999999987e-01
2.489999999999999991e-01
3.729999999999999982e-01
2.069999999999999896e-01
1.859999999999999987e-01
2.280000000000000082e-01
1.859999999999999987e-01
1.660000000000000087e-01
1.859999999999999987e-01
2.280000000000000082e-01
1.660000000000000087e-01
1.859999999999999987e-01
1.660000000000000087e-01
1.859999999999999987e-01
1.859999999999999987e-01
1.660000000000000087e-01
1.239999999999999991e-01
3.729999999999999982e-01
3.519999999999999796e-01
1.859999999999999987e-01
1.660000000000000087e-01
1.859999999999999987e-01
1.660000000000000087e-01
1.859999999999999987e-01
1.859999999999999987e-01
2.280000000000000082e-01
1.859999999999999987e-01
2.690000000000000169e-01
2.069999999999999896e-01
1.449999999999999900e-01
1.449999999999999900e-01
2.069999999999999896e-01
3.729999999999999982e-01
2.690000000000000169e-01
2.069999999999999896e-01
2.489999999999999991e-01
1.859999999999999987e-01
2.489999999999999991e-01
1.660000000000000087e-01
1.660000000000000087e-01
1.859999999999999987e-01
2.489999999999999991e-01
3.109999999999999987e-01
1.660000000000000087e-01
2.489999999999999991e-01
3.109999999999999987e-01
3.519999999999999796e-01
2.069999999999999896e-01
1.859999999999999987e-01
1.449999999999999900e-01
1.660000000000000087e-01
1.859999999999999987e-01
2.069999999999999896e-01
1.449999999999999900e-01
2.489999999999999991e-01
1.449999999999999900e-01
2.489999999999999991e-01
2.069999999999999896e-01
1.660000000000000087e-01
3.519999999999999796e-01
1.859999999999999987e-01
1.449999999999999900e-01
2.489999999999999991e-01
1.859999999999999987e-01
2.069999999999999896e-01
2.280000000000000082e-01
1.239999999999999991e-01
2.069999999999999896e-01
2.280000000000000082e-01
2.899999999999999800e-01
2.280000000000000082e-01
1.660000000000000087e-01
2.280000000000000082e-01
1.859999999999999987e-01
3.519999999999999796e-01
2.690000000000000169e-01
2.069999999999999896e-01
1.239999999999999991e-01
2.069999999999999896e-01
1.859999999999999987e-01
1.660000000000000087e-01
2.280000000000000082e-01
1.660000000000000087e-01
1.449999999999999900e-01
1.660000000000000087e-01
1.859999999999999987e-01
2.280000000000000082e-01
2.280000000000000082e-01
1.660000000000000087e-01
4.349999999999999978e-01
2.690000000000000169e-01
1.660000000000000087e-01
3.109999999999999987e-01
1.859999999999999987e-01
1.660000000000000087e-01
1.859999999999999987e-01
1.859999999999999987e-01
2.690000000000000169e-01
2.069999999999999896e-01
1.449999999999999900e-01
1.859999999999999987e-01
1.859999999999999987e-01
2.069999999999999896e-01
2.280000000000000082e-01
2.489999999999999991e-01
2.899999999999999800e-01
2.069999999999999896e-01
2.069999999999999896e-01
1.449999999999999900e-01
2.690000000000000169e-01
1.239999999999999991e-01
2.069999999999999896e-01
1.449999999999999900e-01
1.660000000000000087e-01
1.239999999999999991e-01
2.069999999999999896e-01
2.489999999999999991e-01
1.859999999999999987e-01
2.489999999999999991e-01
2.069999999999999896e-01
3.310000000000000164e-01
2.069999999999999896e-01
1.859999999999999987e-01
1.859999999999999987e-01
1.660000000000000087e-01
2.069999999999999896e-01
2.280000000000000082e-01
2.280000000000000082e-01
2.280000000000000082e-01
2.069999999999999896e-01
3.109999999999999987e-01
3.519999999999999796e-01
2.069999999999999896e-01
1.660000000000000087e-01
5.180000000000000160e-01
1.859999999999999987e-01
1.859999999999999987e-01
1.239999999999999991e-01
1.660000000000000087e-01
2.489999999999999991e-01
1.859999999999999987e-01
1.660000000000000087e-01
1.859999999999999987e-01
2.069999999999999896e-01
2.489999999999999991e-01
1.859999999999999987e-01
2.280000000000000082e-01
3.109999999999999987e-01
3.519999999999999796e-01
1.859999999999999987e-01
1.660000000000000087e-01
1.660000000000000087e-01
1.660000000000000087e-01
2.690000000000000169e-01
1.449999999999999900e-01
1.239999999999999991e-01
1.859999999999999987e-01
1.660000000000000087e-01
1.859999999999999987e-01
2.280000000000000082e-01
1.859999999999999987e-01
2.489999999999999991e-01
1.660000000000000087e-01
1.449999999999999900e-01
1.859999999999999987e-01
2.069999999999999896e-01
1.660000000000000087e-01
2.280000000000000082e-01
1.449999999999999900e-01
1.859999999999999987e-01
1.660000000000000087e-01
2.069999999999999896e-01
2.069999999999999896e-01
1.660000000000000087e-01
4.349999999999999978e-01
2.280000000000000082e-01
1.660000000000000087e-01
2.280000000000000082e-01
2.489999999999999991e-01
2.489999999999999991e-01
2.489999999999999991e-01
1.660000000000000087e-01
1.859999999999999987e-01
2.489999999999999991e-01
1.859999999999999987e-01
1.660000000000000087e-01
1.449999999999999900e-01
2.280000000000000082e-01
2.899999999999999800e-01
4.349999999999999978e-01
3.310000000000000164e-01
1.660000000000000087e-01
1.859999999999999987e-01
1.859999999999999987e-01
2.280000000000000082e-01
1.660000000000000087e-01
1.859999999999999987e-01
1.859999999999999987e-01
2.069999999999999896e-01
1.859999999999999987e-01
2.069999999999999896e-01
2.069999999999999896e-01
2.280000000000000082e-01
1.859999999999999987e-01
2.489999999999999991e-01
3.729999999999999982e-01
2.069999999999999896e-01
2.690000000000000169e-01
1.859999999999999987e-01
1.859999999999999987e-01
1.859999999999999987e-01
2.069999999999999896e-01
1.859999999999999987e-01
1.660000000000000087e-01
1.859999999999999987e-01
2.069999999999999896e-01
2.489999999999999991e-01
1.660000000000000087e-01
1.660000000000000087e-01
2.690000000000000169e-01
3.519999999999999796e-01
2.069999999999999896e-01
1.660000000000000087e-01
1.859999999999999987e-01
2.280000000000000082e-01
2.489999999999999991e-01
1.859999999999999987e-01
2.280000000000000082e-01
1.449999999999999900e-01
2.280000000000000082e-01
2.280000000000000082e-01
2.280000000000000082e-01
2.280000000000000082e-01
1.859999999999999987e-01
2.690000000000000169e-01
2.280000000000000082e-01
2.069999999999999896e-01
2.489999999999999991e-01
2.069999999999999896e-01
1.660000000000000087e-01
1.660000000000000087e-01
1.660000000000000087e-01
2.280000000000000082e-01
1.660000000000000087e-01
2.280000000000000082e-01
2.280000000000000082e-01
1.660000000000000087e-01
2.690000000000000169e-01
4.139999999999999791e-01
2.280000000000000082e-01
1.859999999999999987e-01
1.859999999999999987e-01
1.449999999999999900e-01
1.859999999999999987e-01
2.280000000000000082e-01
1.859999999999999987e-01
2.069999999999999896e-01
1.859999999999999987e-01
1.449999999999999900e-01
1.660000000000000087e-01
2.690000000000000169e-01
4.139999999999999791e-01
2.280000000000000082e-01
1.449999999999999900e-01
1.859999999999999987e-01
2.069999999999999896e-01
2.069999999999999896e-01
3.519999999999999796e-01
2.280000000000000082e-01
1.859999999999999987e-01
2.069999999999999896e-01
1.449999999999999900e-01
2.280000000000000082e-01
2.280000000000000082e-01
1.660000000000000087e-01
3.109999999999999987e-01
3.940000000000000169e-01
1.449999999999999900e-01
2.690000000000000169e-01
1.859999999999999987e-01
1.859999999999999987e-01
1.660000000000000087e-01
1.660000000000000087e-01
1.660000000000000087e-01
2.069999999999999896e-01
3.109999999999999987e-01
2.489999999999999991e-01
1.660000000000000087e-01
1.660000000000000087e-01
2.489999999999999991e-01
2.489999999999999991e-01
2.690000000000000169e-01
4.769999999999999796e-01
1.660000000000000087e-01
1.859999999999999987e-01
2.069999999999999896e-01
2.280000000000000082e-01
2.069999999999999896e-01
2.489999999999999991e-01
1.660000000000000087e-01
1.859999999999999987e-01
1.859999999999999987e-01
2.280000000000000082e-01
1.449999999999999900e-01
2.899999999999999800e-01
1.660000000000000087e-01
2.690000000000000169e-01
1.859999999999999987e-01
1.859999999999999987e-01
4.560000000000000164e-01
1.859999999999999987e-01
2.069999999999999896e-01
2.690000000000000169e-01
1.859999999999999987e-01
2.489999999999999991e-01
1.239999999999999991e-01
1.859999999999999987e-01
2.069999999999999896e-01
1.859999999999999987e-01
1.859999999999999987e-01
2.280000000000000082e-01
1.859999999999999987e-01
1.660000000000000087e-01
1.449999999999999900e-01
2.069999999999999896e-01
4.349999999999999978e-01
2.690000000000000169e-01
2.069999999999999896e-01
2.069999999999999896e-01
1.859999999999999987e-01
1.859999999999999987e-01
1.449999999999999900e-01
2.069999999999999896e-01
1.859999999999999987e-01
2.280000000000000082e-01
2.899999999999999800e-01
2.280000000000000082e-01
1.660000000000000087e-01
1.239999999999999991e-01
2.690000000000000169e-01
2.069999999999999896e-01
3.310000000000000164e-01
1.660000000000000087e-01
1.859999999999999987e-01
1.859999999999999987e-01
2.489999999999999991e-01
1.859999999999999987e-01
2.069999999999999896e-01
2.280000000000000082e-01
2.069999999999999896e-01
1.660000000000000087e-01
2.489999999999999991e-01
2.280000000000000082e-01
1.660000000000000087e-01
1.859999999999999987e-01
3.310000000000000164e-01
2.690000000000000169e-01
1.660000000000000087e-01
1.239999999999999991e-01
1.859999999999999987e-01
1.449999999999999900e-01
2.069999999999999896e-01
1.660000000000000087e-01
1.449999999999999900e-01
1.449999999999999900e-01
1.859999999999999987e-01
1.859999999999999987e-01
1.660000000000000087e-01
2.069999999999999896e-01
2.690000000000000169e-01
2.690000000000000169e-01
1.859999999999999987e-01
1.449999999999999900e-01
1.449999999999999900e-01
2.280000000000000082e-01
1.859999999999999987e-01
1.859999999999999987e-01
1.660000000000000087e-01
1.239999999999999991e-01
1.239999999999999991e-01
2.069999999999999896e-01
2.280000000000000082e-01
2.280000000000000082e-01
2.069999999999999896e-01
3.729999999999999982e-01
2.280000000000000082e-01
3.940000000000000169e-01
3.729999999999999982e-01
2.069999999999999896e-01
1.859999999999999987e-01
2.069999999999999896e-01
1.859999999999999987e-01
1.660000000000000087e-01
1.859999999999999987e-01
2.489999999999999991e-01
2.280000000000000082e-01
1.660000000000000087e-01
1.449999999999999900e-01
1.660000000000000087e-01
1.859999999999999987e-01
2.489999999999999991e-01
1.859999999999999987e-01
2.690000000000000169e-01
2.069999999999999896e-01
1.449999999999999900e-01
1.660000000000000087e-01
1.039999999999999952e-01
1.859999999999999987e-01
2.069999999999999896e-01
1.859999999999999987e-01
1.239999999999999991e-01
1.859999999999999987e-01
1.660000000000000087e-01
1.660000000000000087e-01
2.069999999999999896e-01
1.449999999999999900e-01
1.859999999999999987e-01
2.069999999999999896e-01
1.239999999999999991e-01
1.449999999999999900e-01
1.859999999999999987e-01
1.660000000000000087e-01
1.660000000000000087e-01
2.069999999999999896e-01
1.660000000000000087e-01
1.859999999999999987e-01
1.660000000000000087e-01
2.069999999999999896e-01
1.660000000000000087e-01
2.690000000000000169e-01
2.690000000000000169e-01
3.519999999999999796e-01
1.449999999999999900e-01
1.660000000000000087e-01
1.660000000000000087e-01
2.280000000000000082e-01
1.859999999999999987e-01
1.859999999999999987e-01
2.069999999999999896e-01
1.660000000000000087e-01
2.069999999999999896e-01
1.859999999999999987e-01
1.660000000000000087e-01
2.489999999999999991e-01
1.859999999999999987e-01
4.969999999999999973e-01
2.069999999999999896e-01
2.069999999999999896e-01
1.859999999999999987e-01
1.660000000000000087e-01
2.280000000000000082e-01
2.069999999999999896e-01
2.069999999999999896e-01
1.859999999999999987e-01
1.660000000000000087e-01
1.859999999999999987e-01
2.069999999999999896e-01
2.069999999999999896e-01
1.859999999999999987e-01
2.489999999999999991e-01
5.799999999999999600e-01
3.109999999999999987e-01
2.069999999999999896e-01
2.069999999999999896e-01
2.069999999999999896e-01
2.069999999999999896e-01
2.069999999999999896e-01
1.859999999999999987e-01
2.489999999999999991e-01
2.069999999999999896e-01
1.859999999999999987e-01
2.069999999999999896e-01
1.859999999999999987e-01
1.660000000000000087e-01
1.859999999999999987e-01
2.899999999999999800e-01
2.690000000000000169e-01
1.859999999999999987e-01
1.660000000000000087e-01
1.449999999999999900e-01
1.239999999999999991e-01
1.660000000000000087e-01
1.859999999999999987e-01
1.859999999999999987e-01
2.069999999999999896e-01
2.690000000000000169e-01
1.660000000000000087e-01
1.660000000000000087e-01
2.069999999999999896e-01
2.690000000000000169e-01
4.139999999999999791e-01
2.489999999999999991e-01
1.660000000000000087e-01
1.449999999999999900e-01
1.239999999999999991e-01
2.280000000000000082e-01
2.690000000000000169e-01
1.859999999999999987e-01
2.899999999999999800e-01
1.660000000000000087e-01
1.859999999999999987e-01
2.069999999999999896e-01
1.859999999999999987e-01
2.489999999999999991e-01
3.729999999999999982e-01
2.280000000000000082e-01
1.660000000000000087e-01
2.489999999999999991e-01
1.660000000000000087e-01
2.069999999999999896e-01
2.069999999999999896e-01
2.280000000000000082e-01
1.859999999999999987e-01
2.899999999999999800e-01
2.280000000000000082e-01
1.859999999999999987e-01
2.069999999999999896e-01
1.859999999999999987e-01
2.690000000000000169e-01
3.310000000000000164e-01
2.690000000000000169e-01
2.069999999999999896e-01
1.660000000000000087e-01
1.660000000000000087e-01
1.859999999999999987e-01
1.859999999999999987e-01
1.239999999999999991e-01
1.660000000000000087e-01
1.660000000000000087e-01
2.690000000000000169e-01
1.660000000000000087e-01
1.660000000000000087e-01
1.660000000000000087e-01
2.280000000000000082e-01
2.489999999999999991e-01
3.519999999999999796e-01
2.069999999999999896e-01
1.660000000000000087e-01
2.069999999999999896e-01
2.280000000000000082e-01
2.690000000000000169e-01
3.109999999999999987e-01
2.069999999999999896e-01
1.449999999999999900e-01
1.239999999999999991e-01
1.449999999999999900e-01
1.859999999999999987e-01
1.859999999999999987e-01
1.859999999999999987e-01
4.560000000000000164e-01
2.280000000000000082e-01
1.859999999999999987e-01
1.660000000000000087e-01
2.690000000000000169e-01
2.280000000000000082e-01
2.489999999999999991e-01
1.859999999999999987e-01
1.859999999999999987e-01
1.859999999999999987e-01
2.069999999999999896e-01
1.859999999999999987e-01
1.449999999999999900e-01
1.239999999999999991e-01
3.729999999999999982e-01
1.660000000000000087e-01
2.069999999999999896e-01
2.489999999999999991e-01
2.069999999999999896e-01
1.239999999999999991e-01
1.239999999999999991e-01
2.069999999999999896e-01
1.449999999999999900e-01
1.859999999999999987e-01
1.239999999999999991e-01
2.489999999999999991e-01
1.859999999999999987e-01
2.690000000000000169e-01
2.069999999999999896e-01
4.139999999999999791e-01
2.280000000000000082e-01
1.449999999999999900e-01
2.069999999999999896e-01
1.239999999999999991e-01
1.660000000000000087e-01
1.449999999999999900e-01
2.489999999999999991e-01
1.660000000000000087e-01
2.280000000000000082e-01
2.069999999999999896e-01
1.449999999999999900e-01
1.449999999999999900e-01
2.280000000000000082e-01
2.899999999999999800e-01
2.899999999999999800e-01
1.449999999999999900e-01
1.660000000000000087e-01
2.280000000000000082e-01
2.069999999999999896e-01
1.859999999999999987e-01
2.069999999999999896e-01
1.660000000000000087e-01
1.660000000000000087e-01
1.039999999999999952e-01
1.449999999999999900e-01
1.449999999999999900e-01
3.729999999999999982e-01
3.310000000000000164e-01
1.239999999999999991e-01
1.449999999999999900e-01
1.660000000000000087e-01
1.660000000000000087e-01
2.690000000000000169e-01
1.859999999999999987e-01
2.280000000000000082e-01
1.859999999999999987e-01
1.859999999999999987e-01
1.449999999999999900e-01
1.859999999999999987e-01
2.069999999999999896e-01
4.769999999999999796e-01
1.859999999999999987e-01
1.660000000000000087e-01
1.859999999999999987e-01
1.239999999999999991e-01
1.660000000000000087e-01
1.859999999999999987e-01
2.280000000000000082e-01
1.660000000000000087e-01
2.280000000000000082e-01
1.449999999999999900e-01
1.660000000000000087e-01
2.280000000000000082e-01
2.280000000000000082e-01
2.280000000000000082e-01
2.280000000000000082e-01
1.859999999999999987e-01
2.489999999999999991e-01
1.859999999999999987e-01
1.859999999999999987e-01
1.859999999999999987e-01
1.660000000000000087e-01
1.660000000000000087e-01
1.239999999999999991e-01
1.660000000000000087e-01
2.069999999999999896e-01
1.449999999999999900e-01
2.489999999999999991e-01
1.239999999999999991e-01
2.489999999999999991e-01
3.310000000000000164e-01
1.449999999999999900e-01
1.239999999999999991e-01
2.489999999999999991e-01
2.069999999999999896e-01
1.449999999999999900e-01
1.449999999999999900e-01
2.069999999999999896e-01
2.069999999999999896e-01
1.239999999999999991e-01
1.660000000000000087e-01
2.899999999999999800e-01
1.239999999999999991e-01
2.069999999999999896e-01
4.349999999999999978e-01
1.660000000000000087e-01
2.069999999999999896e-01
1.239999999999999991e-01
1.660000000000000087e-01
1.859999999999999987e-01
2.069999999999999896e-01
1.660000000000000087e-01
1.449999999999999900e-01
1.449999999999999900e-01
1.449999999999999900e-01
1.449999999999999900e-01
1.239999999999999991e-01
1.239999999999999991e-01
2.489999999999999991e-01
2.280000000000000082e-01
2.280000000000000082e-01
2.280000000000000082e-01
1.449999999999999900e-01
1.859999999999999987e-01
1.660000000000000087e-01
1.660000000000000087e-01
2.069999999999999896e-01
2.069999999999999896e-01
2.280000000000000082e-01
1.859999999999999987e-01
1.660000000000000087e-01
2.690000000000000169e-01
2.280000000000000082e-01
1.660000000000000087e-01
3.729999999999999982e-01
1.660000000000000087e-01
1.660000000000000087e-01
1.859999999999999987e-01
1.449999999999999900e-01
1.039999999999999952e-01
1.859999999999999987e-01
1.239999999999999991e-01
1.239999999999999991e-01
2.489999999999999991e-01
1.859999999999999987e-01
2.280000000000000082e-01
1.660000000000000087e-01
1.859999999999999987e-01
3.729999999999999982e-01
1.859999999999999987e-01
1.859999999999999987e-01
1.859999999999999987e-01
2.069999999999999896e-01
2.069999999999999896e-01
2.489999999999999991e-01
2.069999999999999896e-01
1.449999999999999900e-01
1.660000000000000087e-01
1.859999999999999987e-01
1.859999999999999987e-01
1.449999999999999900e-01
2.280000000000000082e-01
2.899999999999999800e-01
1.449999999999999900e-01
2.489999999999999991e-01
2.690000000000000169e-01
2.489999999999999991e-01
1.239999999999999991e-01
2.489999999999999991e-01
1.859999999999999987e-01
1.449999999999999900e-01
1.859999999999999987e-01
1.859999999999999987e-01
2.280000000000000082e-01
1.239999999999999991e-01
1.859999999999999987e-01
3.519999999999999796e-01
4.139999999999999791e-01
1.449999999999999900e-01
1.660000000000000087e-01
1.660000000000000087e-01
1.859999999999999987e-01
1.449999999999999900e-01
1.660000000000000087e-01
2.280000000000000082e-01
1.859999999999999987e-01
2.280000000000000082e-01
1.660000000000000087e-01
2.069999999999999896e-01
1.859999999999999987e-01
1.859999999999999987e-01
3.310000000000000164e-01
1.859999999999999987e-01
2.489999999999999991e-01
2.489999999999999991e-01
1.449999999999999900e-01
1.660000000000000087e-01
2.069999999999999896e-01
1.859999999999999987e-01
1.859999999999999987e-01
1.859999999999999987e-01
1.660000000000000087e-01
1.449999999999999900e-01
1.660000000000000087e-01
3.729999999999999982e-01
3.109999999999999987e-01
1.660000000000000087e-01
1.859999999999999987e-01
2.069999999999999896e-01
1.660000000000000087e-01
2.280000000000000082e-01
1.449999999999999900e-01
1.239999999999999991e-01
1.449999999999999900e-01
2.069999999999999896e-01
1.660000000000000087e-01
1.449999999999999900e-01
1.449999999999999900e-01
3.109999999999999987e-01
2.280000000000000082e-01
1.449999999999999900e-01
1.859999999999999987e-01
1.660000000000000087e-01
1.039999999999999952e-01
1.449999999999999900e-01
1.449999999999999900e-01
1.859999999999999987e-01
2.069999999999999896e-01
2.069999999999999896e-01
1.239999999999999991e-01
1.859999999999999987e-01
2.069999999999999896e-01
1.449999999999999900e-01
3.940000000000000169e-01
2.690000000000000169e-01
2.069999999999999896e-01
2.069999999999999896e-01
1.859999999999999987e-01
1.239999999999999991e-01
1.859999999999999987e-01
1.239999999999999991e-01
1.449999999999999900e-01
1.859999999999999987e-01
2.280000000000000082e-01
2.069999999999999896e-01
1.660000000000000087e-01
3.519999999999999796e-01
2.899999999999999800e-01
1.449999999999999900e-01
1.449999999999999900e-01
1.449999999999999900e-01
1.449999999999999900e-01
1.660000000000000087e-01
1.859999999999999987e-01
1.859999999999999987e-01
1.239999999999999991e-01
1.660000000000000087e-01
1.660000000000000087e-01
1.660000000000000087e-01
1.660000000000000087e-01
3.729999999999999982e-01
1.239999999999999991e-01
1.660000000000000087e-01
1.449999999999999900e-01
1.239999999999999991e-01
1.859999999999999987e-01
1.859999999999999987e-01
2.069999999999999896e-01
1.660000000000000087e-01
2.489999999999999991e-01
1.449999999999999900e-01
1.239999999999999991e-01
2.069999999999999896e-01
1.449999999999999900e-01
4.139999999999999791e-01
2.899999999999999800e-01
1.239999999999999991e-01
1.449999999999999900e-01
1.449999999999999900e-01
1.449999999999999900e-01
1.039999999999999952e-01
1.660000000000000087e-01
2.280000000000000082e-01
1.449999999999999900e-01
2.280000000000000082e-01
1.660000000000000087e-01
1.660000000000000087e-01
1.449999999999999900e-01
1.859999999999999987e-01
3.519999999999999796e-01
1.660000000000000087e-01
1.660000000000000087e-01
1.239999999999999991e-01
1.660000000000000087e-01
1.859999999999999987e-01
1.859999999999999987e-01
2.489999999999999991e-01
1.239999999999999991e-01
1.660000000000000087e-01
1.239999999999999991e-01
1.449999999999999900e-01
1.449999999999999900e-01
2.899999999999999800e-01
2.069999999999999896e-01
2.069999999999999896e-01
1.859999999999999987e-01
1.449999999999999900e-01
1.449999999999999900e-01
1.660000000000000087e-01
1.449999999999999900e-01
1.239999999999999991e-01
1.660000000000000087e-01
1.660000000000000087e-01
1.660000000000000087e-01
1.660000000000000087e-01
1.449999999999999900e-01
1.449999999999999900e-01
3.310000000000000164e-01
1.449999999999999900e-01
1.449999999999999900e-01
1.239999999999999991e-01
1.859999999999999987e-01
1.449999999999999900e-01
1.039999999999999952e-01
1.239999999999999991e-01
1.239999999999999991e-01
1.660000000000000087e-01
1.449999999999999900e-01
2.069999999999999896e-01
2.489999999999999991e-01
2.069999999999999896e-01
1.660000000000000087e-01
3.310000000000000164e-01
1.859999999999999987e-01
2.069999999999999896e-01
1.239999999999999991e-01
1.660000000000000087e-01
1.660000000000000087e-01
1.239999999999999991e-01
1.859999999999999987e-01
2.069999999999999896e-01
1.859999999999999987e-01
1.859999999999999987e-01
1.859999999999999987e-01
1.239999999999999991e-01
1.859999999999999987e-01
2.489999999999999991e-01
3.310000000000000164e-01
1.660000000000000087e-01
2.280000000000000082e-01
1.859999999999999987e-01
2.069999999999999896e-01
1.859999999999999987e-01
1.660000000000000087e-01
1.660000000000000087e-01
1.239999999999999991e-01
1.449999999999999900e-01
1.449999999999999900e-01
1.449999999999999900e-01
1.660000000000000087e-01
3.310000000000000164e-01
2.069999999999999896e-01
1.449999999999999900e-01
1.449999999999999900e-01
2.069999999999999896e-01
1.449999999999999900e-01
1.239999999999999991e-01
2.280000000000000082e-01
1.859999999999999987e-01
2.069999999999999896e-01
1.859999999999999987e-01
1.660000000000000087e-01
2.489999999999999991e-01
1.859999999999999987e-01
2.280000000000000082e-01
3.940000000000000169e-01
1.859999999999999987e-01
1.239999999999999991e-01
1.449999999999999900e-01
1.859999999999999987e-01
1.239999999999999991e-01
1.859999999999999987e-01
1.859999999999999987e-01
1.660000000000000087e-01
2.489999999999999991e-01
4.769999999999999796e-01
3.940000000000000169e-01
2.899999999999999800e-01
1.859999999999999987e-01
3.109999999999999987e-01
5.390000000000000346e-01
2.069999999999999896e-01
2.489999999999999991e-01
1.239999999999999991e-01
2.489999999999999991e-01
1.660000000000000087e-01
1.660000000000000087e-01
1.660000000000000087e-01
1.449999999999999900e-01
1.449999999999999900e-01
1.859999999999999987e-01
2.069999999999999896e-01
2.069999999999999896e-01
3.940000000000000169e-01
2.280000000000000082e-01
2.690000000000000169e-01
2.280000000000000082e-01
2.489999999999999991e-01
2.069999999999999896e-01
1.859999999999999987e-01
2.069999999999999896e-01
2.069999999999999896e-01
1.859999999999999987e-01
1.859999999999999987e-01
1.859999999999999987e-01
2.489999999999999991e-01
3.940000000000000169e-01
3.310000000000000164e-01
2.280000000000000082e-01
1.660000000000000087e-01
1.660000000000000087e-01
2.280000000000000082e-01
2.069999999999999896e-01
1.859999999999999987e-01
1.859999999999999987e-01
2.069999999999999896e-01
2.280000000000000082e-01
2.280000000000000082e-01
2.280000000000000082e-01
3.109999999999999987e-01
2.489999999999999991e-01
1.660000000000000087e-01
2.069999999999999896e-01
1.449999999999999900e-01
2.489999999999999991e-01
1.859999999999999987e-01
2.280000000000000082e-01
1.859999999999999987e-01
2.069999999999999896e-01
1.660000000000000087e-01
2.069999999999999896e-01
1.660000000000000087e-01
2.069999999999999896e-01
1.859999999999999987e-01
2.069999999999999896e-01
2.899999999999999800e-01
3.729999999999999982e-01
1.239999999999999991e-01
2.069999999999999896e-01
1.859999999999999987e-01
1.660000000000000087e-01
1.859999999999999987e-01
1.239999999999999991e-01
2.280000000000000082e-01
2.069999999999999896e-01
1.449999999999999900e-01
1.859999999999999987e-01
1.859999999999999987e-01
1.449999999999999900e-01
1.449999999999999900e-01
1.449999999999999900e-01
2.690000000000000169e-01
2.899999999999999800e-01
2.069999999999999896e-01
2.280000000000000082e-01
1.449999999999999900e-01
1.449999999999999900e-01
1.449999999999999900e-01
1.859999999999999987e-01
1.660000000000000087e-01
2.489999999999999991e-01
1.859999999999999987e-01
2.899999999999999800e-01
1.859999999999999987e-01
1.449999999999999900e-01
1.859999999999999987e-01
1.859999999999999987e-01
3.940000000000000169e-01
1.859999999999999987e-01
2.690000000000000169e-01
1.859999999999999987e-01
1.660000000000000087e-01
2.489999999999999991e-01
2.069999999999999896e-01
1.859999999999999987e-01
3.109999999999999987e-01
2.690000000000000169e-01
2.489999999999999991e-01
2.069999999999999896e-01
2.280000000000000082e-01
1.449999999999999900e-01
4.139999999999999791e-01
2.899999999999999800e-01
1.859999999999999987e-01
2.069999999999999896e-01
1.449999999999999900e-01
2.899999999999999800e-01
1.859999999999999987e-01
2.690000000000000169e-01
2.069999999999999896e-01
2.069999999999999896e-01
1.449999999999999900e-01
1.859999999999999987e-01
2.069999999999999896e-01
1.449999999999999900e-01
1.859999999999999987e-01
1.859999999999999987e-01
4.349999999999999978e-01
3.109999999999999987e-01
2.069999999999999896e-01
2.069999999999999896e-01
2.069999999999999896e-01
2.069999999999999896e-01
2.069999999999999896e-01
1.449999999999999900e-01
2.899999999999999800e-01
1.859999999999999987e-01
1.239999999999999991e-01
1.859999999999999987e-01
1.239999999999999991e-01
2.489999999999999991e-01
2.069999999999999896e-01
2.280000000000000082e-01
2.069999999999999896e-01
2.280000000000000082e-01
2.489999999999999991e-01
1.660000000000000087e-01
1.660000000000000087e-01
2.489999999999999991e-01
1.859999999999999987e-01
1.660000000000000087e-01
2.280000000000000082e-01
2.069999999999999896e-01
2.069999999999999896e-01
2.069999999999999896e-01
1.859999999999999987e-01
2.489999999999999991e-01
1.660000000000000087e-01
2.280000000000000082e-01
2.069999999999999896e-01
1.660000000000000087e-01
4.769999999999999796e-01
3.109999999999999987e-01
1.859999999999999987e-01
1.449999999999999900e-01
2.280000000000000082e-01
2.280000000000000082e-01
2.489999999999999991e-01
1.660000000000000087e-01
1.239999999999999991e-01
1.859999999999999987e-01
2.069999999999999896e-01
1.859999999999999987e-01
1.859999999999999987e-01
1.859999999999999987e-01
1.859999999999999987e-01
2.489999999999999991e-01
3.310000000000000164e-01
2.069999999999999896e-01
2.069999999999999896e-01
2.069999999999999896e-01
2.069999999999999896e-01
1.660000000000000087e-01
1.660000000000000087e-01
1.449999999999999900e-01
1.449999999999999900e-01
1.660000000000000087e-01
1.859999999999999987e-01
1.449999999999999900e-01
2.280000000000000082e-01
1.449999999999999900e-01
1.859999999999999987e-01
3.940000000000000169e-01
2.489999999999999991e-01
2.489999999999999991e-01
2.489999999999999991e-01
2.280000000000000082e-01
2.899999999999999800e-01
2.280000000000000082e-01
2.069999999999999896e-01
2.280000000000000082e-01
2.069999999999999896e-01
2.069999999999999896e-01
2.069999999999999896e-01
1.449999999999999900e-01
1.859999999999999987e-01
2.489999999999999991e-01
1.859999999999999987e-01
3.109999999999999987e-01
2.489999999999999991e-01
2.280000000000000082e-01
1.660000000000000087e-01
2.280000000000000082e-01
2.489999999999999991e-01
1.660000000000000087e-01
1.449999999999999900e-01
2.280000000000000082e-01
1.660000000000000087e-01
1.660000000000000087e-01
2.069999999999999896e-01
1.660000000000000087e-01
2.069999999999999896e-01
1.660000000000000087e-01
1.239999999999999991e-01
2.069999999999999896e-01
1.449999999999999900e-01
3.310000000000000164e-01
2.069999999999999896e-01
1.859999999999999987e-01
1.660000000000000087e-01
1.859999999999999987e-01
1.039999999999999952e-01
1.859999999999999987e-01
1.449999999999999900e-01
2.069999999999999896e-01
1.859999999999999987e-01
2.069999999999999896e-01
2.280000000000000082e-01
2.899999999999999800e-01
1.859999999999999987e-01
1.660000000000000087e-01
2.069999999999999896e-01
3.519999999999999796e-01
2.899999999999999800e-01
2.280000000000000082e-01
2.069999999999999896e-01
1.239999999999999991e-01
1.039999999999999952e-01
2.280000000000000082e-01
1.449999999999999900e-01
1.239999999999999991e-01
2.280000000000000082e-01
2.069999999999999896e-01
1.660000000000000087e-01
1.449999999999999900e-01
2.069999999999999896e-01
3.109999999999999987e-01
3.109999999999999987e-01
2.069999999999999896e-01
2.069999999999999896e-01
1.660000000000000087e-01
1.859999999999999987e-01
1.859999999999999987e-01
2.280000000000000082e-01
1.449999999999999900e-01
1.449999999999999900e-01
1.859999999999999987e-01
2.069999999999999896e-01
1.859999999999999987e-01
1.859999999999999987e-01
2.489999999999999991e-01
3.940000000000000169e-01
1.859999999999999987e-01
1.239999999999999991e-01
2.069999999999999896e-01
1.660000000000000087e-01
2.280000000000000082e-01
1.039999999999999952e-01
1.859999999999999987e-01
2.069999999999999896e-01
1.449999999999999900e-01
2.280000000000000082e-01
1.449999999999999900e-01
1.239999999999999991e-01
1.859999999999999987e-01
1.660000000000000087e-01
3.310000000000000164e-01
2.280000000000000082e-01
1.449999999999999900e-01
1.449999999999999900e-01
1.449999999999999900e-01
1.859999999999999987e-01
1.449999999999999900e-01
1.449999999999999900e-01
1.859999999999999987e-01
1.859999999999999987e-01
2.069999999999999896e-01
1.660000000000000087e-01
2.069999999999999896e-01
2.280000000000000082e-01
2.280000000000000082e-01
1.660000000000000087e-01
3.310000000000000164e-01
4.349999999999999978e-01
1.660000000000000087e-01
2.489999999999999991e-01
2.280000000000000082e-01
2.489999999999999991e-01
1.859999999999999987e-01
1.660000000000000087e-01
2.280000000000000082e-01
1.859999999999999987e-01
1.660000000000000087e-01
1.449999999999999900e-01
1.660000000000000087e-01
1.239999999999999991e-01
1.449999999999999900e-01
1.039999999999999952e-01
3.109999999999999987e-01
2.489999999999999991e-01
1.660000000000000087e-01
1.859999999999999987e-01
2.069999999999999896e-01
2.489999999999999991e-01
1.660000000000000087e-01
