2.690000000000000169e-01
1.660000000000000087e-01
2.069999999999999896e-01
3.109999999999999987e-01
3.109999999999999987e-01
2.069999999999999896e-01
3.940000000000000169e-01
3.940000000000000169e-01
1.660000000000000087e-01
2.069999999999999896e-01
3.519999999999999796e-01
2.280000000000000082e-01
2.899999999999999800e-01
2.069999999999999896e-01
2.280000000000000082e-01
1.859999999999999987e-01
9.739999999999999769e-01
3.310000000000000164e-01
2.690000000000000169e-01
6.630000000000000338e-01
2.489999999999999991e-01
1.859999999999999987e-01
3.519999999999999796e-01
2.280000000000000082e-01
1.076999999999999957e+00
8.910000000000000142e-01
9.529999999999999583e-01
1.118999999999999995e+00
1.947999999999999954e+00
2.444999999999999840e+00
3.310000000000000164e-01
1.264000000000000012e+00
1.304999999999999938e+00
6.009999999999999787e-01
5.390000000000000346e-01
4.349999999999999978e-01
6.219999999999999973e-01
3.729999999999999982e-01
8.289999999999999591e-01
2.879999999999999893e+00
1.512000000000000011e+00
4.349999999999999978e-01
3.729999999999999982e-01
5.590000000000000524e-01
1.491999999999999993e+00
1.677999999999999936e+00
5.799999999999999600e-01
3.956999999999999851e+00
2.112999999999999989e+00
3.935999999999999943e+00
4.847999999999999865e+00
3.564000000000000057e+00
1.927000000000000046e+00
4.599000000000000199e+00
3.666999999999999815e+00
7.022999999999999687e+00
3.398000000000000131e+00
4.931000000000000050e+00
5.905000000000000249e+00
7.105999999999999872e+00
5.511000000000000121e+00
4.703000000000000291e+00
6.174000000000000377e+00
3.314999999999999947e+00
7.043999999999999595e+00
7.852000000000000313e+00
6.070000000000000284e+00
6.235999999999999766e+00
6.796000000000000263e+00
9.157000000000000028e+00
7.831000000000000405e+00
8.432000000000000384e+00
1.031799999999999962e+01
7.685999999999999943e+00
1.019299999999999962e+01
8.121999999999999886e+00
9.260999999999999233e+00
6.402000000000000135e+00
9.800000000000000711e+00
1.104299999999999926e+01
7.022999999999999687e+00
1.069100000000000072e+01
7.458999999999999631e+00
1.062800000000000011e+01
8.909000000000000696e+00
6.796000000000000263e+00
7.727999999999999758e+00
1.019299999999999962e+01
1.050399999999999956e+01
1.083600000000000030e+01
7.086000000000000298e+00
1.139499999999999957e+01
8.412000000000000810e+00
7.458999999999999631e+00
7.293000000000000149e+00
8.329000000000000625e+00
7.479000000000000092e+00
6.815999999999999837e+00
7.644999999999999574e+00
5.137999999999999901e+00
1.127100000000000080e+01
8.329000000000000625e+00
9.986000000000000654e+00
7.272000000000000242e+00
6.919999999999999929e+00
6.608999999999999986e+00
6.235999999999999766e+00
7.003000000000000114e+00
3.956999999999999851e+00
9.612999999999999545e+00
5.116999999999999993e+00
7.395999999999999908e+00
6.982000000000000206e+00
6.650999999999999801e+00
3.709000000000000075e+00
6.940999999999999837e+00
5.200000000000000178e+00
6.381000000000000227e+00
1.369500000000000028e+01
8.141999999999999460e+00
8.743000000000000327e+00
1.145700000000000074e+01
6.940999999999999837e+00
8.141999999999999460e+00
8.391000000000000014e+00
7.251000000000000334e+00
1.417099999999999937e+01
1.201699999999999946e+01
1.042099999999999937e+01
1.166399999999999970e+01
1.562199999999999989e+01
1.332199999999999918e+01
2.061499999999999844e+01
1.334299999999999997e+01
1.425399999999999956e+01
1.062800000000000011e+01
1.133300000000000018e+01
1.004800000000000004e+01
1.164400000000000013e+01
7.562000000000000277e+00
8.080000000000000071e+00
8.266999999999999460e+00
6.235999999999999766e+00
7.562000000000000277e+00
7.355000000000000426e+00
7.333999999999999631e+00
1.010999999999999943e+01
5.137999999999999901e+00
7.996999999999999886e+00
5.386999999999999567e+00
4.517000000000000348e+00
7.003000000000000114e+00
5.780000000000000249e+00
6.815999999999999837e+00
6.671000000000000263e+00
9.448000000000000398e+00
9.778999999999999915e+00
1.102200000000000024e+01
6.112000000000000099e+00
7.003000000000000114e+00
1.541399999999999970e+01
5.158999999999999808e+00
1.091900000000000048e+01
1.201699999999999946e+01
8.163000000000000256e+00
6.919999999999999929e+00
1.149900000000000055e+01
5.035000000000000142e+00
5.884000000000000341e+00
8.846999999999999531e+00
7.105999999999999872e+00
9.571999999999999176e+00
6.360000000000000320e+00
6.360000000000000320e+00
6.919999999999999929e+00
5.884000000000000341e+00
1.048300000000000054e+01
1.255499999999999972e+01
5.116999999999999993e+00
1.448199999999999932e+01
6.857999999999999652e+00
4.931000000000000050e+00
9.695999999999999730e+00
3.750000000000000000e+00
8.224999999999999645e+00
6.442999999999999616e+00
8.121999999999999886e+00
3.108000000000000096e+00
7.810999999999999943e+00
3.355999999999999872e+00
6.671000000000000263e+00
2.838000000000000078e+00
4.703000000000000291e+00
4.309000000000000163e+00
7.706999999999999851e+00
5.386999999999999567e+00
6.195000000000000284e+00
8.826000000000000512e+00
1.618100000000000094e+01
6.381000000000000227e+00
3.999000000000000110e+00
4.123000000000000220e+00
1.079400000000000048e+01
1.404700000000000060e+01
1.174699999999999989e+01
1.062800000000000011e+01
1.433699999999999974e+01
2.065599999999999881e+01
1.183000000000000007e+01
9.426999999999999602e+00
4.972000000000000419e+00
1.201999999999999957e+00
3.210999999999999854e+00
1.512000000000000011e+00
6.630000000000000338e-01
4.969999999999999973e-01
9.120000000000000329e-01
2.630999999999999783e+00
5.799999999999999600e-01
2.009999999999999787e+00
1.284999999999999920e+00
7.670000000000000151e-01
3.519999999999999796e-01
1.139999999999999902e+00
8.289999999999999591e-01
6.630000000000000338e-01
1.181000000000000050e+00
3.940000000000000169e-01
3.109999999999999987e-01
4.349999999999999978e-01
5.390000000000000346e-01
5.799999999999999600e-01
5.180000000000000160e-01
4.349999999999999978e-01
6.630000000000000338e-01
5.180000000000000160e-01
4.560000000000000164e-01
5.180000000000000160e-01
2.690000000000000169e-01
4.139999999999999791e-01
3.729999999999999982e-01
4.139999999999999791e-01
3.940000000000000169e-01
3.729999999999999982e-01
6.840000000000000524e-01
4.349999999999999978e-01
3.310000000000000164e-01
2.899999999999999800e-01
5.390000000000000346e-01
5.799999999999999600e-01
4.969999999999999973e-01
3.940000000000000169e-01
3.109999999999999987e-01
4.969999999999999973e-01
5.799999999999999600e-01
4.349999999999999978e-01
4.349999999999999978e-01
3.109999999999999987e-01
5.180000000000000160e-01
4.139999999999999791e-01
3.729999999999999982e-01
5.390000000000000346e-01
2.069999999999999896e-01
6.630000000000000338e-01
6.630000000000000338e-01
3.310000000000000164e-01
4.139999999999999791e-01
3.729999999999999982e-01
3.729999999999999982e-01
2.899999999999999800e-01
3.109999999999999987e-01
2.899999999999999800e-01
3.519999999999999796e-01
5.180000000000000160e-01
7.870000000000000329e-01
5.799999999999999600e-01
5.590000000000000524e-01
3.310000000000000164e-01
4.560000000000000164e-01
5.390000000000000346e-01
2.280000000000000082e-01
3.310000000000000164e-01
3.087000000000000188e+00
8.369999999999999218e+00
3.419000000000000039e+00
4.599000000000000199e+00
5.054999999999999716e+00
4.868999999999999773e+00
1.760999999999999899e+00
4.102000000000000313e+00
4.434000000000000163e+00
3.045999999999999819e+00
1.574999999999999956e+00
4.743999999999999773e+00
1.739999999999999991e+00
4.349999999999999978e-01
3.273000000000000131e+00
2.092999999999999972e+00
1.967999999999999972e+00
1.294899999999999984e+01
1.267999999999999972e+01
9.529999999999999583e-01
1.326000000000000068e+00
7.459999999999999964e-01
4.560000000000000164e-01
6.420000000000000151e-01
8.489999999999999769e-01
2.548000000000000043e+00
8.910000000000000142e-01
8.080000000000000515e-01
7.249999999999999778e-01
1.118999999999999995e+00
4.703000000000000291e+00
8.640000000000000568e+00
1.782000000000000028e+00
7.870000000000000329e-01
8.699999999999999956e-01
2.217000000000000082e+00
1.098000000000000087e+00
3.210999999999999854e+00
9.137000000000000455e+00
1.512000000000000011e+00
1.989000000000000101e+00
9.739999999999999769e-01
1.905999999999999917e+00
1.927000000000000046e+00
4.227000000000000313e+00
2.072000000000000064e+00
1.967999999999999972e+00
1.056999999999999940e+00
1.491999999999999993e+00
1.594999999999999973e+00
9.343999999999999417e+00
6.423000000000000043e+00
2.237999999999999989e+00
2.258000000000000007e+00
4.453999999999999737e+00
2.217000000000000082e+00
4.349999999999999978e-01
8.289999999999999591e-01
5.390000000000000346e-01
7.249999999999999778e-01
3.940000000000000169e-01
1.056999999999999940e+00
7.870000000000000329e-01
8.080000000000000515e-01
1.056999999999999940e+00
8.289999999999999591e-01
7.376000000000000334e+00
4.496000000000000441e+00
1.947999999999999954e+00
4.769999999999999796e-01
9.120000000000000329e-01
1.657000000000000028e+00
1.616000000000000103e+00
8.699999999999999956e-01
1.387999999999999901e+00
6.840000000000000524e-01
2.879999999999999893e+00
1.616000000000000103e+00
7.870000000000000329e-01
3.666999999999999815e+00
2.196000000000000174e+00
7.870000000000000329e-01
7.670000000000000151e-01
1.118999999999999995e+00
3.190999999999999837e+00
7.670000000000000151e-01
7.870000000000000329e-01
7.249999999999999778e-01
8.489999999999999769e-01
6.840000000000000524e-01
7.039999999999999591e-01
6.009999999999999787e-01
7.459999999999999964e-01
7.249999999999999778e-01
4.969999999999999973e-01
4.969999999999999973e-01
7.459999999999999964e-01
7.039999999999999591e-01
2.983000000000000096e+00
3.584000000000000075e+00
4.413000000000000256e+00
1.822999999999999954e+00
4.309000000000000163e+00
2.444999999999999840e+00
2.548000000000000043e+00
5.365999999999999659e+00
1.947999999999999954e+00
2.900999999999999801e+00
6.008000000000000007e+00
2.797000000000000153e+00
4.288999999999999702e+00
1.265900000000000070e+01
3.108000000000000096e+00
6.420000000000000151e-01
4.102000000000000313e+00
4.826999999999999957e+00
4.246999999999999886e+00
2.589999999999999858e+00
5.945999999999999730e+00
8.101000000000000867e+00
5.615000000000000213e+00
5.490000000000000213e+00
6.546999999999999709e+00
4.081000000000000405e+00
7.644999999999999574e+00
5.116999999999999993e+00
4.972000000000000419e+00
4.910000000000000142e+00
5.179999999999999716e+00
9.115999999999999659e+00
4.620000000000000107e+00
7.293000000000000149e+00
6.133000000000000007e+00
5.261999999999999567e+00
5.780000000000000249e+00
6.008000000000000007e+00
6.028999999999999915e+00
5.532000000000000028e+00
4.641000000000000014e+00
4.474999999999999645e+00
4.371999999999999886e+00
6.753999999999999559e+00
4.267999999999999794e+00
4.040000000000000036e+00
1.400600000000000023e+01
3.439000000000000057e+00
5.386999999999999567e+00
3.811999999999999833e+00
5.283000000000000362e+00
1.346999999999999975e+00
1.657000000000000028e+00
2.858999999999999986e+00
1.802000000000000046e+00
1.098000000000000087e+00
1.760999999999999899e+00
1.076999999999999957e+00
3.210999999999999854e+00
7.810999999999999943e+00
1.326000000000000068e+00
7.437999999999999723e+00
1.657000000000000028e+00
1.947999999999999954e+00
1.346999999999999975e+00
1.512000000000000011e+00
1.885000000000000009e+00
1.471000000000000085e+00
2.713999999999999968e+00
1.181000000000000050e+00
3.895000000000000018e+00
2.299999999999999822e+00
4.246999999999999886e+00
1.885000000000000009e+00
4.474999999999999645e+00
1.967999999999999972e+00
5.511000000000000121e+00
1.616000000000000103e+00
2.568999999999999950e+00
3.128000000000000114e+00
4.931000000000000050e+00
2.548000000000000043e+00
1.802000000000000046e+00
2.963000000000000078e+00
1.989000000000000101e+00
2.383000000000000007e+00
2.174999999999999822e+00
1.409000000000000030e+00
2.009999999999999787e+00
7.086000000000000298e+00
2.920999999999999819e+00
1.574999999999999956e+00
1.366999999999999993e+00
1.616000000000000103e+00
4.969999999999999973e-01
4.560000000000000164e-01
2.051000000000000156e+00
2.528000000000000025e+00
5.221000000000000085e+00
4.040000000000000036e+00
4.578999999999999737e+00
3.811999999999999833e+00
2.797000000000000153e+00
1.304999999999999938e+00
3.376999999999999780e+00
4.163999999999999702e+00
4.371999999999999886e+00
1.243000000000000105e+00
3.253000000000000114e+00
5.054999999999999716e+00
1.616000000000000103e+00
1.346999999999999975e+00
1.056999999999999940e+00
3.232000000000000206e+00
2.528000000000000025e+00
1.677999999999999936e+00
1.139999999999999902e+00
1.471000000000000085e+00
2.858999999999999986e+00
1.677999999999999936e+00
2.051000000000000156e+00
1.739999999999999991e+00
1.014999999999999902e+00
8.910000000000000142e-01
7.670000000000000151e-01
8.289999999999999591e-01
1.014999999999999902e+00
5.590000000000000524e-01
4.560000000000000164e-01
8.080000000000000515e-01
6.630000000000000338e-01
6.840000000000000524e-01
6.009999999999999787e-01
3.519999999999999796e-01
2.489999999999999991e-01
6.219999999999999973e-01
1.859999999999999987e-01
3.940000000000000169e-01
7.873000000000000220e+00
5.532000000000000028e+00
4.536999999999999922e+00
1.489600000000000080e+01
4.910000000000000142e+00
6.857999999999999652e+00
4.517000000000000348e+00
2.217000000000000082e+00
2.486000000000000210e+00
7.670000000000000151e-01
4.578999999999999737e+00
2.734999999999999876e+00
6.423000000000000043e+00
1.449999999999999956e+00
3.790999999999999925e+00
1.967999999999999972e+00
1.139999999999999902e+00
1.927000000000000046e+00
1.181000000000000050e+00
1.989000000000000101e+00
1.532999999999999918e+00
2.383000000000000007e+00
2.734999999999999876e+00
4.227000000000000313e+00
8.412000000000000810e+00
1.777599999999999980e+01
1.359099999999999930e+01
1.064899999999999913e+01
1.112599999999999945e+01
7.230999999999999872e+00
9.654999999999999361e+00
8.576999999999999957e+00
7.934999999999999609e+00
8.058999999999999275e+00
7.126999999999999780e+00
7.230999999999999872e+00
5.655999999999999694e+00
4.889999999999999680e+00
6.961000000000000298e+00
8.701999999999999957e+00
7.168999999999999595e+00
1.508300000000000018e+01
9.095000000000000639e+00
1.263799999999999990e+01
4.847999999999999865e+00
8.971000000000000085e+00
6.692000000000000171e+00
3.956999999999999851e+00
6.650999999999999801e+00
8.369999999999999218e+00
6.133000000000000007e+00
4.184999999999999609e+00
3.625999999999999890e+00
3.645999999999999908e+00
6.277999999999999581e+00
6.546999999999999709e+00
6.629999999999999893e+00
6.339999999999999858e+00
3.999000000000000110e+00
4.123000000000000220e+00
5.924999999999999822e+00
2.486000000000000210e+00
2.734999999999999876e+00
4.641000000000000014e+00
2.196000000000000174e+00
3.709000000000000075e+00
2.072000000000000064e+00
2.278999999999999915e+00
4.620000000000000107e+00
4.620000000000000107e+00
8.080000000000000071e+00
3.645999999999999908e+00
2.755999999999999783e+00
2.879999999999999893e+00
5.905000000000000249e+00
8.121999999999999886e+00
5.325000000000000178e+00
2.174999999999999822e+00
3.273000000000000131e+00
5.407000000000000028e+00
2.693000000000000060e+00
3.956999999999999851e+00
8.038999999999999702e+00
1.220299999999999940e+01
1.885000000000000009e+00
4.206000000000000405e+00
4.599000000000000199e+00
5.241999999999999993e+00
3.978000000000000203e+00
1.058699999999999974e+01
1.081499999999999950e+01
8.826000000000000512e+00
1.178899999999999970e+01
1.183000000000000007e+01
1.365300000000000047e+01
1.249300000000000033e+01
7.706999999999999851e+00
1.317699999999999960e+01
1.245199999999999996e+01
1.151900000000000013e+01
1.203700000000000081e+01
1.634700000000000131e+01
1.661599999999999966e+01
1.189199999999999946e+01
1.168500000000000050e+01
1.340499999999999936e+01
8.141999999999999460e+00
1.352899999999999991e+01
7.105999999999999872e+00
1.506199999999999939e+01
8.598000000000000753e+00
2.011700000000000088e+01
7.604000000000000092e+00
1.311500000000000021e+01
9.157000000000000028e+00
3.294000000000000039e+00
1.274200000000000088e+01
1.234800000000000075e+01
9.384999999999999787e+00
1.452299999999999969e+01
1.367399999999999949e+01
1.667800000000000082e+01
1.872899999999999920e+01
1.783800000000000097e+01
1.537299999999999933e+01
9.840999999999999304e+00
2.415700000000000003e+01
1.535200000000000031e+01
1.135399999999999920e+01
1.311500000000000021e+01
2.038700000000000045e+01
1.280400000000000027e+01
2.608399999999999963e+01
1.928900000000000148e+01
1.574600000000000044e+01
1.151900000000000013e+01
1.276200000000000045e+01
1.172700000000000031e+01
1.241000000000000014e+01
1.400600000000000023e+01
1.031799999999999962e+01
9.923999999999999488e+00
6.298000000000000043e+00
9.903000000000000469e+00
1.228599999999999959e+01
6.028999999999999915e+00
3.978000000000000203e+00
4.081000000000000405e+00
2.797000000000000153e+00
4.453999999999999737e+00
4.060999999999999943e+00
9.198999999999999844e+00
1.319800000000000040e+01
9.220000000000000639e+00
4.206000000000000405e+00
8.121999999999999886e+00
4.661999999999999922e+00
1.699000000000000066e+00
6.840000000000000524e-01
1.554000000000000048e+00
1.677999999999999936e+00
4.139999999999999791e-01
6.420000000000000151e-01
1.594999999999999973e+00
4.434000000000000163e+00
2.942000000000000171e+00
2.775999999999999801e+00
7.022999999999999687e+00
3.398000000000000131e+00
6.381000000000000227e+00
3.273000000000000131e+00
1.967999999999999972e+00
4.703000000000000291e+00
8.121999999999999886e+00
2.092999999999999972e+00
4.330000000000000071e+00
4.536999999999999922e+00
2.403000000000000025e+00
1.616000000000000103e+00
5.717999999999999972e+00
5.241999999999999993e+00
2.755999999999999783e+00
1.139999999999999902e+00
1.637000000000000011e+00
3.335999999999999854e+00
2.818000000000000060e+00
5.180000000000000160e-01
2.174999999999999822e+00
4.807000000000000384e+00
7.230999999999999872e+00
2.383000000000000007e+00
2.072000000000000064e+00
1.739999999999999991e+00
5.551999999999999602e+00
2.713999999999999968e+00
2.278999999999999915e+00
2.464999999999999858e+00
9.739999999999999769e-01
4.764999999999999680e+00
6.070000000000000284e+00
5.179999999999999716e+00
4.826999999999999957e+00
4.972000000000000419e+00
4.785999999999999588e+00
2.507000000000000117e+00
1.243000000000000105e+00
1.637000000000000011e+00
3.355999999999999872e+00
4.972000000000000419e+00
1.719999999999999973e+00
1.947999999999999954e+00
8.080000000000000515e-01
2.486000000000000210e+00
1.760999999999999899e+00
1.471000000000000085e+00
6.219999999999999973e-01
2.174999999999999822e+00
1.036000000000000032e+00
1.471000000000000085e+00
1.181000000000000050e+00
2.341000000000000192e+00
1.471000000000000085e+00
1.409000000000000030e+00
1.739999999999999991e+00
1.201999999999999957e+00
2.174999999999999822e+00
1.905999999999999917e+00
6.840000000000000524e-01
2.029999999999999805e+00
3.004000000000000004e+00
6.630000000000000338e-01
7.670000000000000151e-01
4.139999999999999791e-01
1.284999999999999920e+00
1.822999999999999954e+00
1.449999999999999956e+00
6.339999999999999858e+00
4.227000000000000313e+00
2.362000000000000099e+00
1.000699999999999967e+01
5.469999999999999751e+00
7.894000000000000128e+00
4.620000000000000107e+00
1.782000000000000028e+00
3.335999999999999854e+00
4.123000000000000220e+00
3.355999999999999872e+00
5.822000000000000064e+00
7.376000000000000334e+00
3.584000000000000075e+00
4.868999999999999773e+00
4.206000000000000405e+00
7.727999999999999758e+00
6.442999999999999616e+00
2.362000000000000099e+00
5.221000000000000085e+00
7.022999999999999687e+00
4.910000000000000142e+00
4.993000000000000327e+00
6.878000000000000114e+00
6.298000000000000043e+00
5.386999999999999567e+00
5.532000000000000028e+00
6.940999999999999837e+00
5.261999999999999567e+00
2.154999999999999805e+00
1.677999999999999936e+00
3.045999999999999819e+00
6.091000000000000192e+00
4.392000000000000348e+00
7.670000000000000151e-01
4.139999999999999791e-01
7.039999999999999591e-01
8.080000000000000515e-01
8.489999999999999769e-01
6.219999999999999973e-01
7.670000000000000151e-01
9.939999999999999947e-01
1.284999999999999920e+00
7.870000000000000329e-01
1.491999999999999993e+00
4.139999999999999791e-01
4.349999999999999978e-01
5.590000000000000524e-01
6.420000000000000151e-01
6.840000000000000524e-01
6.630000000000000338e-01
4.769999999999999796e-01
4.139999999999999791e-01
5.590000000000000524e-01
2.690000000000000169e-01
1.885000000000000009e+00
6.152999999999999581e+00
3.645999999999999908e+00
5.137999999999999901e+00
7.541000000000000369e+00
5.634999999999999787e+00
7.333999999999999631e+00
9.157000000000000028e+00
6.235999999999999766e+00
7.293000000000000149e+00
1.021400000000000041e+01
9.157000000000000028e+00
8.680999999999999162e+00
1.489600000000000080e+01
1.976500000000000057e+01
1.087700000000000067e+01
6.402000000000000135e+00
1.040099999999999980e+01
1.168500000000000050e+01
4.144000000000000128e+00
7.604000000000000092e+00
6.732999999999999652e+00
5.988000000000000433e+00
6.133000000000000007e+00
5.573000000000000398e+00
7.810999999999999943e+00
5.780000000000000249e+00
5.780000000000000249e+00
5.035000000000000142e+00
3.500999999999999890e+00
2.755999999999999783e+00
4.474999999999999645e+00
4.724000000000000199e+00
5.532000000000000028e+00
3.273000000000000131e+00
2.713999999999999968e+00
2.444999999999999840e+00
5.014000000000000234e+00
3.833000000000000185e+00
6.732999999999999652e+00
3.232000000000000206e+00
4.536999999999999922e+00
3.935999999999999943e+00
2.444999999999999840e+00
3.935999999999999943e+00
2.341000000000000192e+00
3.149000000000000021e+00
3.750000000000000000e+00
2.278999999999999915e+00
5.801000000000000156e+00
2.900999999999999801e+00
4.517000000000000348e+00
3.729000000000000092e+00
4.620000000000000107e+00
3.666999999999999815e+00
3.439000000000000057e+00
4.931000000000000050e+00
5.615000000000000213e+00
5.532000000000000028e+00
4.910000000000000142e+00
6.796000000000000263e+00
6.713000000000000078e+00
8.763999999999999346e+00
4.227000000000000313e+00
8.307999999999999829e+00
4.163999999999999702e+00
6.650999999999999801e+00
7.251000000000000334e+00
1.085599999999999987e+01
7.583000000000000185e+00
9.840999999999999304e+00
1.359099999999999930e+01
8.721999999999999531e+00
9.862000000000000099e+00
1.325999999999999979e+01
7.209999999999999964e+00
1.810800000000000054e+01
1.236899999999999977e+01
1.363299999999999912e+01
1.168500000000000050e+01
1.313499999999999979e+01
1.361200000000000010e+01
1.135399999999999920e+01
1.653300000000000125e+01
1.833599999999999852e+01
9.737999999999999545e+00
1.317699999999999960e+01
1.359099999999999930e+01
5.325000000000000178e+00
7.249999999999999778e-01
6.836999999999999744e+00
1.021400000000000041e+01
1.711299999999999955e+01
1.158099999999999952e+01
1.599399999999999977e+01
1.096000000000000085e+01
3.688000000000000167e+00
6.464000000000000412e+00
5.780000000000000249e+00
5.427999999999999936e+00
6.713000000000000078e+00
3.480999999999999872e+00
3.874000000000000110e+00
4.578999999999999737e+00
3.419000000000000039e+00
2.900999999999999801e+00
4.144000000000000128e+00
5.344999999999999751e+00
3.604999999999999982e+00
5.615000000000000213e+00
2.507000000000000117e+00
3.210999999999999854e+00
5.116999999999999993e+00
4.641000000000000014e+00
3.935999999999999943e+00
5.179999999999999716e+00
3.253000000000000114e+00
6.339999999999999858e+00
4.309000000000000163e+00
2.797000000000000153e+00
2.630999999999999783e+00
5.573000000000000398e+00
3.314999999999999947e+00
3.398000000000000131e+00
4.764999999999999680e+00
5.097000000000000419e+00
4.453999999999999737e+00
4.144000000000000128e+00
3.811999999999999833e+00
3.956999999999999851e+00
4.102000000000000313e+00
3.169999999999999929e+00
4.434000000000000163e+00
4.641000000000000014e+00
3.604999999999999982e+00
5.615000000000000213e+00
3.564000000000000057e+00
4.350999999999999979e+00
5.054999999999999716e+00
1.033799999999999919e+01
1.309399999999999942e+01
1.218200000000000038e+01
6.775000000000000355e+00
8.992000000000000881e+00
1.385999999999999943e+01
2.189900000000000091e+01
2.898499999999999943e+01
-2.915500000000000114e+01
-2.822200000000000131e+01
2.177499999999999858e+01
1.251399999999999935e+01
1.520700000000000074e+01
1.290700000000000003e+01
1.122899999999999920e+01
7.769000000000000128e+00
3.335999999999999854e+00
4.785999999999999588e+00
5.966999999999999638e+00
5.427999999999999936e+00
5.863000000000000433e+00
7.333999999999999631e+00
8.576999999999999957e+00
6.485000000000000320e+00
8.826000000000000512e+00
3.854000000000000092e+00
6.899000000000000021e+00
8.369999999999999218e+00
6.464000000000000412e+00
6.402000000000000135e+00
6.402000000000000135e+00
5.427999999999999936e+00
7.293000000000000149e+00
7.562000000000000277e+00
9.467999999999999972e+00
7.604000000000000092e+00
7.272000000000000242e+00
2.276899999999999835e+01
7.230999999999999872e+00
7.086000000000000298e+00
5.780000000000000249e+00
6.008000000000000007e+00
5.469999999999999751e+00
2.609999999999999876e+00
7.894000000000000128e+00
5.717999999999999972e+00
2.341000000000000192e+00
6.650999999999999801e+00
3.253000000000000114e+00
2.444999999999999840e+00
8.287000000000000810e+00
1.139999999999999902e+00
1.201999999999999957e+00
7.541000000000000369e+00
1.802000000000000046e+00
1.098000000000000087e+00
5.407000000000000028e+00
3.915999999999999925e+00
5.615000000000000213e+00
3.190999999999999837e+00
2.879999999999999893e+00
3.294000000000000039e+00
3.935999999999999943e+00
1.243000000000000105e+00
2.818000000000000060e+00
1.201999999999999957e+00
1.699000000000000066e+00
5.137999999999999901e+00
1.366999999999999993e+00
4.392000000000000348e+00
2.051000000000000156e+00
1.739999999999999991e+00
4.123000000000000220e+00
1.284999999999999920e+00
1.967999999999999972e+00
2.589999999999999858e+00
3.604999999999999982e+00
1.201999999999999957e+00
4.227000000000000313e+00
9.529999999999999583e-01
1.782000000000000028e+00
3.149000000000000021e+00
1.304999999999999938e+00
2.568999999999999950e+00
2.464999999999999858e+00
2.734999999999999876e+00
6.630000000000000338e-01
1.201999999999999957e+00
4.557999999999999829e+00
9.120000000000000329e-01
1.387999999999999901e+00
1.760999999999999899e+00
1.346999999999999975e+00
2.818000000000000060e+00
1.076999999999999957e+00
1.657000000000000028e+00
1.657000000000000028e+00
2.319999999999999840e+00
1.159999999999999920e+00
4.769999999999999796e-01
9.320000000000000506e-01
9.120000000000000329e-01
1.284999999999999920e+00
2.112999999999999989e+00
1.098000000000000087e+00
1.014999999999999902e+00
2.092999999999999972e+00
9.739999999999999769e-01
5.799999999999999600e-01
1.594999999999999973e+00
6.840000000000000524e-01
1.304999999999999938e+00
1.802000000000000046e+00
1.304999999999999938e+00
1.782000000000000028e+00
2.299999999999999822e+00
7.039999999999999591e-01
6.840000000000000524e-01
1.719999999999999973e+00
3.128000000000000114e+00
1.181000000000000050e+00
2.423999999999999932e+00
2.879999999999999893e+00
8.289999999999999591e-01
1.304999999999999938e+00
8.910000000000000142e-01
1.699000000000000066e+00
1.243000000000000105e+00
1.532999999999999918e+00
2.507000000000000117e+00
2.092999999999999972e+00
2.403000000000000025e+00
1.822999999999999954e+00
2.900999999999999801e+00
2.920999999999999819e+00
1.532999999999999918e+00
2.196000000000000174e+00
1.304999999999999938e+00
9.120000000000000329e-01
2.713999999999999968e+00
1.782000000000000028e+00
2.299999999999999822e+00
1.967999999999999972e+00
2.652000000000000135e+00
1.574999999999999956e+00
1.326000000000000068e+00
2.092999999999999972e+00
3.004000000000000004e+00
7.459999999999999964e-01
5.590000000000000524e-01
4.769999999999999796e-01
1.076999999999999957e+00
1.409000000000000030e+00
1.076999999999999957e+00
2.258000000000000007e+00
9.120000000000000329e-01
1.449999999999999956e+00
1.243000000000000105e+00
7.870000000000000329e-01
1.554000000000000048e+00
7.039999999999999591e-01
1.739999999999999991e+00
1.927000000000000046e+00
1.657000000000000028e+00
1.905999999999999917e+00
1.637000000000000011e+00
1.449999999999999956e+00
1.491999999999999993e+00
1.429999999999999938e+00
1.387999999999999901e+00
1.014999999999999902e+00
1.864999999999999991e+00
1.284999999999999920e+00
1.885000000000000009e+00
2.528000000000000025e+00
1.677999999999999936e+00
1.014999999999999902e+00
6.630000000000000338e-01
1.181000000000000050e+00
1.699000000000000066e+00
9.739999999999999769e-01
1.471000000000000085e+00
7.870000000000000329e-01
8.289999999999999591e-01
1.076999999999999957e+00
2.690000000000000169e-01
4.769999999999999796e-01
5.390000000000000346e-01
9.320000000000000506e-01
1.387999999999999901e+00
7.870000000000000329e-01
5.390000000000000346e-01
1.139999999999999902e+00
6.009999999999999787e-01
6.219999999999999973e-01
1.098000000000000087e+00
3.519999999999999796e-01
7.039999999999999591e-01
8.489999999999999769e-01
6.219999999999999973e-01
5.799999999999999600e-01
2.630999999999999783e+00
5.390000000000000346e-01
1.098000000000000087e+00
1.264000000000000012e+00
7.670000000000000151e-01
4.139999999999999791e-01
4.969999999999999973e-01
3.940000000000000169e-01
2.069999999999999896e-01
5.180000000000000160e-01
3.940000000000000169e-01
2.690000000000000169e-01
2.899999999999999800e-01
8.289999999999999591e-01
4.139999999999999791e-01
6.420000000000000151e-01
3.729999999999999982e-01
9.939999999999999947e-01
1.802000000000000046e+00
4.163999999999999702e+00
2.154999999999999805e+00
2.548000000000000043e+00
2.299999999999999822e+00
2.278999999999999915e+00
2.237999999999999989e+00
1.739999999999999991e+00
1.927000000000000046e+00
2.196000000000000174e+00
2.775999999999999801e+00
3.543000000000000149e+00
1.594999999999999973e+00
1.760999999999999899e+00
2.838000000000000078e+00
2.029999999999999805e+00
3.874000000000000110e+00
2.299999999999999822e+00
2.112999999999999989e+00
2.092999999999999972e+00
1.554000000000000048e+00
1.739999999999999991e+00
1.512000000000000011e+00
1.864999999999999991e+00
1.822999999999999954e+00
2.528000000000000025e+00
2.693000000000000060e+00
2.403000000000000025e+00
1.657000000000000028e+00
1.782000000000000028e+00
2.196000000000000174e+00
1.822999999999999954e+00
2.174999999999999822e+00
2.196000000000000174e+00
2.174999999999999822e+00
2.009999999999999787e+00
1.822999999999999954e+00
1.284999999999999920e+00
1.574999999999999956e+00
1.181000000000000050e+00
1.304999999999999938e+00
1.927000000000000046e+00
1.366999999999999993e+00
4.434000000000000163e+00
5.532000000000000028e+00
8.266999999999999460e+00
9.282000000000000028e+00
1.253500000000000014e+01
6.464000000000000412e+00
1.145700000000000074e+01
4.227000000000000313e+00
4.951999999999999957e+00
4.350999999999999979e+00
5.738999999999999879e+00
2.609999999999999876e+00
2.051000000000000156e+00
3.108000000000000096e+00
2.713999999999999968e+00
6.525999999999999801e+00
3.770999999999999908e+00
4.227000000000000313e+00
3.978000000000000203e+00
2.838000000000000078e+00
3.190999999999999837e+00
3.543000000000000149e+00
2.713999999999999968e+00
4.993000000000000327e+00
1.822999999999999954e+00
1.822999999999999954e+00
4.392000000000000348e+00
1.574999999999999956e+00
2.630999999999999783e+00
1.409000000000000030e+00
1.512000000000000011e+00
3.915999999999999925e+00
2.528000000000000025e+00
1.243000000000000105e+00
2.196000000000000174e+00
3.480999999999999872e+00
2.319999999999999840e+00
4.413000000000000256e+00
2.217000000000000082e+00
2.092999999999999972e+00
2.879999999999999893e+00
2.528000000000000025e+00
2.341000000000000192e+00
2.092999999999999972e+00
2.196000000000000174e+00
1.532999999999999918e+00
2.486000000000000210e+00
1.512000000000000011e+00
3.956999999999999851e+00
4.288999999999999702e+00
4.206000000000000405e+00
2.879999999999999893e+00
3.750000000000000000e+00
2.112999999999999989e+00
3.108000000000000096e+00
3.999000000000000110e+00
5.490000000000000213e+00
4.578999999999999737e+00
4.267999999999999794e+00
4.807000000000000384e+00
4.578999999999999737e+00
4.350999999999999979e+00
3.584000000000000075e+00
1.014999999999999902e+00
1.594999999999999973e+00
1.304999999999999938e+00
1.243000000000000105e+00
4.019000000000000128e+00
4.785999999999999588e+00
2.609999999999999876e+00
2.920999999999999819e+00
1.118999999999999995e+00
2.092999999999999972e+00
3.521999999999999797e+00
3.294000000000000039e+00
2.423999999999999932e+00
2.920999999999999819e+00
3.087000000000000188e+00
3.149000000000000021e+00
2.920999999999999819e+00
3.232000000000000206e+00
3.521999999999999797e+00
3.999000000000000110e+00
2.196000000000000174e+00
2.589999999999999858e+00
2.734999999999999876e+00
1.760999999999999899e+00
1.243000000000000105e+00
1.346999999999999975e+00
1.864999999999999991e+00
1.760999999999999899e+00
1.782000000000000028e+00
1.616000000000000103e+00
1.221999999999999975e+00
1.284999999999999920e+00
1.284999999999999920e+00
1.471000000000000085e+00
2.196000000000000174e+00
2.029999999999999805e+00
1.739999999999999991e+00
1.782000000000000028e+00
1.594999999999999973e+00
1.366999999999999993e+00
1.532999999999999918e+00
1.844000000000000083e+00
1.429999999999999938e+00
1.905999999999999917e+00
1.905999999999999917e+00
1.429999999999999938e+00
2.237999999999999989e+00
2.072000000000000064e+00
1.429999999999999938e+00
1.782000000000000028e+00
1.471000000000000085e+00
1.719999999999999973e+00
1.657000000000000028e+00
1.304999999999999938e+00
1.594999999999999973e+00
2.237999999999999989e+00
2.009999999999999787e+00
2.154999999999999805e+00
2.196000000000000174e+00
1.905999999999999917e+00
1.699000000000000066e+00
7.249999999999999778e-01
3.419000000000000039e+00
4.785999999999999588e+00
6.732999999999999652e+00
9.406000000000000583e+00
5.801000000000000156e+00
4.972000000000000419e+00
7.479000000000000092e+00
3.004000000000000004e+00
4.081000000000000405e+00
2.734999999999999876e+00
5.780000000000000249e+00
3.376999999999999780e+00
3.709000000000000075e+00
3.709000000000000075e+00
4.453999999999999737e+00
3.169999999999999929e+00
3.128000000000000114e+00
3.480999999999999872e+00
2.920999999999999819e+00
2.797000000000000153e+00
3.314999999999999947e+00
1.035899999999999999e+01
7.105999999999999872e+00
3.294000000000000039e+00
2.507000000000000117e+00
2.196000000000000174e+00
4.081000000000000405e+00
4.309000000000000163e+00
5.801000000000000156e+00
5.137999999999999901e+00
4.371999999999999886e+00
6.423000000000000043e+00
5.780000000000000249e+00
4.972000000000000419e+00
5.884000000000000341e+00
5.054999999999999716e+00
2.942000000000000171e+00
3.854000000000000092e+00
3.854000000000000092e+00
3.956999999999999851e+00
4.019000000000000128e+00
5.179999999999999716e+00
5.137999999999999901e+00
5.966999999999999638e+00
1.471000000000000085e+00
2.092999999999999972e+00
3.811999999999999833e+00
3.169999999999999929e+00
4.496000000000000441e+00
2.734999999999999876e+00
3.688000000000000167e+00
4.641000000000000014e+00
3.915999999999999925e+00
4.206000000000000405e+00
3.065999999999999837e+00
2.589999999999999858e+00
5.427999999999999936e+00
6.298000000000000043e+00
6.112000000000000099e+00
3.108000000000000096e+00
4.060999999999999943e+00
3.355999999999999872e+00
3.045999999999999819e+00
2.507000000000000117e+00
3.625999999999999890e+00
4.060999999999999943e+00
2.652000000000000135e+00
4.807000000000000384e+00
4.557999999999999829e+00
5.801000000000000156e+00
4.724000000000000199e+00
2.755999999999999783e+00
4.309000000000000163e+00
3.895000000000000018e+00
4.227000000000000313e+00
5.655999999999999694e+00
8.867000000000000881e+00
1.251399999999999935e+01
8.701999999999999957e+00
3.584000000000000075e+00
4.931000000000000050e+00
5.884000000000000341e+00
6.028999999999999915e+00
3.625999999999999890e+00
5.427999999999999936e+00
4.060999999999999943e+00
7.189000000000000057e+00
5.427999999999999936e+00
3.895000000000000018e+00
3.915999999999999925e+00
4.578999999999999737e+00
2.713999999999999968e+00
3.314999999999999947e+00
1.449999999999999956e+00
1.304999999999999938e+00
2.734999999999999876e+00
3.128000000000000114e+00
2.319999999999999840e+00
2.403000000000000025e+00
5.386999999999999567e+00
7.086000000000000298e+00
6.402000000000000135e+00
2.278999999999999915e+00
2.092999999999999972e+00
2.319999999999999840e+00
1.346999999999999975e+00
1.703000000000000114e+01
1.773499999999999943e+01
1.286599999999999966e+01
4.578999999999999737e+00
3.294000000000000039e+00
3.956999999999999851e+00
6.919999999999999929e+00
4.309000000000000163e+00
3.895000000000000018e+00
4.517000000000000348e+00
3.854000000000000092e+00
4.102000000000000313e+00
5.924999999999999822e+00
3.419000000000000039e+00
3.584000000000000075e+00
3.004000000000000004e+00
3.480999999999999872e+00
2.879999999999999893e+00
2.029999999999999805e+00
2.713999999999999968e+00
3.398000000000000131e+00
1.989000000000000101e+00
3.087000000000000188e+00
2.797000000000000153e+00
2.299999999999999822e+00
3.128000000000000114e+00
2.403000000000000025e+00
2.548000000000000043e+00
3.645999999999999908e+00
2.630999999999999783e+00
3.604999999999999982e+00
4.267999999999999794e+00
1.905999999999999917e+00
3.500999999999999890e+00
3.169999999999999929e+00
2.423999999999999932e+00
5.325000000000000178e+00
4.330000000000000071e+00
7.500000000000000000e+00
6.671000000000000263e+00
3.854000000000000092e+00
6.402000000000000135e+00
4.557999999999999829e+00
4.910000000000000142e+00
4.931000000000000050e+00
4.102000000000000313e+00
3.355999999999999872e+00
4.144000000000000128e+00
3.128000000000000114e+00
2.673000000000000043e+00
3.688000000000000167e+00
3.190999999999999837e+00
6.732999999999999652e+00
3.584000000000000075e+00
2.920999999999999819e+00
3.770999999999999908e+00
6.899000000000000021e+00
7.022999999999999687e+00
3.087000000000000188e+00
7.670000000000000151e-01
5.634999999999999787e+00
8.349000000000000199e+00
4.724000000000000199e+00
3.500999999999999890e+00
5.179999999999999716e+00
5.179999999999999716e+00
4.144000000000000128e+00
2.423999999999999932e+00
5.407000000000000028e+00
2.775999999999999801e+00
6.360000000000000320e+00
4.910000000000000142e+00
3.294000000000000039e+00
3.854000000000000092e+00
4.724000000000000199e+00
2.072000000000000064e+00
1.739999999999999991e+00
3.108000000000000096e+00
3.419000000000000039e+00
3.439000000000000057e+00
5.261999999999999567e+00
6.546999999999999709e+00
3.688000000000000167e+00
4.807000000000000384e+00
1.264000000000000012e+00
8.489999999999999769e-01
4.206000000000000405e+00
5.075999999999999623e+00
3.584000000000000075e+00
4.227000000000000313e+00
2.734999999999999876e+00
2.464999999999999858e+00
6.298000000000000043e+00
4.682000000000000384e+00
5.407000000000000028e+00
5.490000000000000213e+00
5.655999999999999694e+00
4.060999999999999943e+00
4.972000000000000419e+00
2.154999999999999805e+00
3.253000000000000114e+00
5.594000000000000306e+00
4.184999999999999609e+00
3.190999999999999837e+00
5.884000000000000341e+00
3.770999999999999908e+00
2.983000000000000096e+00
3.770999999999999908e+00
4.246999999999999886e+00
2.693000000000000060e+00
4.163999999999999702e+00
2.983000000000000096e+00
2.072000000000000064e+00
3.895000000000000018e+00
4.661999999999999922e+00
5.014000000000000234e+00
3.584000000000000075e+00
5.924999999999999822e+00
4.743999999999999773e+00
6.815999999999999837e+00
3.915999999999999925e+00
3.915999999999999925e+00
3.999000000000000110e+00
3.564000000000000057e+00
3.729000000000000092e+00
2.423999999999999932e+00
4.206000000000000405e+00
4.931000000000000050e+00
2.528000000000000025e+00
4.330000000000000071e+00
3.915999999999999925e+00
3.210999999999999854e+00
2.589999999999999858e+00
3.273000000000000131e+00
3.688000000000000167e+00
2.963000000000000078e+00
5.511000000000000121e+00
3.335999999999999854e+00
2.713999999999999968e+00
2.237999999999999989e+00
4.517000000000000348e+00
2.154999999999999805e+00
4.931000000000000050e+00
1.409000000000000030e+00
5.075999999999999623e+00
1.947999999999999954e+00
4.060999999999999943e+00
2.528000000000000025e+00
2.383000000000000007e+00
2.362000000000000099e+00
1.512000000000000011e+00
3.915999999999999925e+00
2.112999999999999989e+00
2.942000000000000171e+00
3.045999999999999819e+00
2.838000000000000078e+00
3.335999999999999854e+00
3.108000000000000096e+00
4.764999999999999680e+00
4.641000000000000014e+00
3.398000000000000131e+00
2.319999999999999840e+00
3.604999999999999982e+00
2.196000000000000174e+00
2.423999999999999932e+00
2.818000000000000060e+00
2.548000000000000043e+00
3.419000000000000039e+00
2.507000000000000117e+00
2.589999999999999858e+00
2.652000000000000135e+00
3.645999999999999908e+00
2.734999999999999876e+00
3.169999999999999929e+00
2.444999999999999840e+00
3.376999999999999780e+00
3.253000000000000114e+00
2.600100000000000122e+01
1.207399999999999984e+01
6.152999999999999581e+00
8.246000000000000441e+00
5.717999999999999972e+00
9.551000000000000156e+00
7.583000000000000185e+00
7.189000000000000057e+00
7.810999999999999943e+00
1.978600000000000136e+01
2.015899999999999892e+01
1.346700000000000053e+01
1.247199999999999953e+01
7.355000000000000426e+00
8.618999999999999773e+00
7.769000000000000128e+00
7.314000000000000057e+00
9.157000000000000028e+00
7.314000000000000057e+00
1.327999999999999936e+01
9.675000000000000711e+00
1.066999999999999993e+01
1.017300000000000004e+01
8.785000000000000142e+00
9.115999999999999659e+00
7.147999999999999687e+00
7.458999999999999631e+00
9.571999999999999176e+00
1.149900000000000055e+01
9.986000000000000654e+00
9.365000000000000213e+00
6.423000000000000043e+00
1.015199999999999925e+01
2.038700000000000045e+01
1.301099999999999923e+01
6.049999999999999822e+00
7.810999999999999943e+00
1.093900000000000006e+01
6.796000000000000263e+00
9.012000000000000455e+00
7.666000000000000369e+00
6.692000000000000171e+00
6.464000000000000412e+00
6.506000000000000227e+00
5.676999999999999602e+00
9.074999999999999289e+00
1.062800000000000011e+01
6.112000000000000099e+00
7.831000000000000405e+00
4.123000000000000220e+00
6.588000000000000078e+00
1.004800000000000004e+01
3.459999999999999964e+00
7.189000000000000057e+00
9.198999999999999844e+00
8.349000000000000199e+00
5.344999999999999751e+00
7.376000000000000334e+00
7.272000000000000242e+00
1.385999999999999943e+01
7.541000000000000369e+00
1.127100000000000080e+01
1.104299999999999926e+01
6.629999999999999893e+00
7.168999999999999595e+00
9.426999999999999602e+00
1.574600000000000044e+01
1.479299999999999926e+01
1.885399999999999920e+01
1.454400000000000048e+01
-3.039799999999999969e+01
1.526900000000000013e+01
2.080099999999999838e+01
2.283099999999999952e+01
2.347400000000000020e+01
1.862600000000000122e+01
2.088400000000000034e+01
2.355699999999999861e+01
1.775600000000000023e+01
2.927499999999999858e+01
1.686499999999999844e+01
2.245899999999999963e+01
2.382600000000000051e+01
1.630499999999999972e+01
1.541399999999999970e+01
1.495899999999999963e+01
1.914399999999999835e+01
1.715500000000000114e+01
1.522799999999999976e+01
1.381900000000000084e+01
1.365300000000000047e+01
1.877100000000000080e+01
1.369500000000000028e+01
1.189199999999999946e+01
1.168500000000000050e+01
7.168999999999999595e+00
8.992000000000000881e+00
1.040099999999999980e+01
1.452299999999999969e+01
1.441999999999999993e+01
1.462700000000000067e+01
1.172700000000000031e+01
1.079400000000000048e+01
1.174699999999999989e+01
1.510399999999999920e+01
1.392300000000000004e+01
1.102200000000000024e+01
1.232699999999999996e+01
1.031799999999999962e+01
1.694800000000000040e+01
1.638800000000000168e+01
1.483399999999999963e+01
1.361200000000000010e+01
1.079400000000000048e+01
1.249300000000000033e+01
1.487599999999999945e+01
1.427500000000000036e+01
1.355000000000000071e+01
1.862600000000000122e+01
8.701999999999999957e+00
1.562199999999999989e+01
1.381900000000000084e+01
1.243099999999999916e+01
1.462700000000000067e+01
1.309399999999999942e+01
1.698900000000000077e+01
1.135399999999999920e+01
1.348799999999999955e+01
1.044200000000000017e+01
1.584900000000000020e+01
1.431600000000000072e+01
1.062800000000000011e+01
1.038000000000000078e+01
8.721999999999999531e+00
8.785000000000000142e+00
1.098099999999999987e+01
1.265900000000000070e+01
1.056600000000000072e+01
1.002800000000000047e+01
1.209900000000000020e+01
1.127100000000000080e+01
1.089799999999999969e+01
9.592999999999999972e+00
1.682300000000000040e+01
1.106400000000000006e+01
9.054000000000000270e+00
1.798300000000000054e+01
1.705099999999999838e+01
1.510399999999999920e+01
7.065000000000000391e+00
1.441999999999999993e+01
1.599399999999999977e+01
1.516600000000000037e+01
1.247199999999999953e+01
1.423300000000000054e+01
8.038999999999999702e+00
7.126999999999999780e+00
7.644999999999999574e+00
9.198999999999999844e+00
8.287000000000000810e+00
1.000699999999999967e+01
9.178000000000000824e+00
1.158099999999999952e+01
1.170599999999999952e+01
9.054000000000000270e+00
7.395999999999999908e+00
7.706999999999999851e+00
8.763999999999999346e+00
6.028999999999999915e+00
6.671000000000000263e+00
7.913999999999999702e+00
9.178000000000000824e+00
8.183999999999999275e+00
6.256999999999999673e+00
1.046299999999999919e+01
1.038000000000000078e+01
9.012000000000000455e+00
7.913999999999999702e+00
4.578999999999999737e+00
1.539400000000000013e+01
9.365000000000000213e+00
6.732999999999999652e+00
1.131199999999999939e+01
1.462700000000000067e+01
1.413000000000000078e+01
9.964999999999999858e+00
1.131199999999999939e+01
1.170599999999999952e+01
1.139499999999999957e+01
1.263799999999999990e+01
9.882999999999999119e+00
9.240000000000000213e+00
1.297000000000000064e+01
1.118800000000000061e+01
1.226500000000000057e+01
1.852199999999999847e+01
1.054599999999999937e+01
1.363299999999999912e+01
1.659499999999999886e+01
1.350799999999999912e+01
1.814900000000000091e+01
1.147799999999999976e+01
1.122899999999999920e+01
8.721999999999999531e+00
8.701999999999999957e+00
9.301999999999999602e+00
7.251000000000000334e+00
1.122899999999999920e+01
7.147999999999999687e+00
8.721999999999999531e+00
9.903000000000000469e+00
6.464000000000000412e+00
6.713000000000000078e+00
8.018000000000000682e+00
7.520999999999999908e+00
6.940999999999999837e+00
8.329000000000000625e+00
8.515000000000000568e+00
7.810999999999999943e+00
9.923999999999999488e+00
1.369500000000000028e+01
1.738299999999999912e+01
1.522799999999999976e+01
9.282000000000000028e+00
7.126999999999999780e+00
6.940999999999999837e+00
9.509999999999999787e+00
7.126999999999999780e+00
6.298000000000000043e+00
6.091000000000000192e+00
6.070000000000000284e+00
4.826999999999999957e+00
7.977000000000000313e+00
1.019299999999999962e+01
9.406000000000000583e+00
1.713400000000000034e+01
1.106400000000000006e+01
9.426999999999999602e+00
1.361200000000000010e+01
1.139499999999999957e+01
1.008999999999999986e+01
2.156800000000000139e+01
1.413000000000000078e+01
1.408799999999999919e+01
1.966199999999999903e+01
2.098799999999999955e+01
1.783800000000000097e+01
1.006900000000000084e+01
1.957900000000000063e+01
1.703000000000000114e+01
1.230700000000000038e+01
9.323000000000000398e+00
1.102200000000000024e+01
1.338400000000000034e+01
1.682300000000000040e+01
2.359799999999999898e+01
5.241999999999999993e+00
1.243099999999999916e+01
1.151900000000000013e+01
4.807000000000000384e+00
7.272000000000000242e+00
1.657499999999999929e+01
6.339999999999999858e+00
1.029700000000000060e+01
9.137000000000000455e+00
9.343999999999999417e+00
1.147799999999999976e+01
1.193399999999999928e+01
1.479299999999999926e+01
1.721699999999999875e+01
8.080000000000000071e+00
6.650999999999999801e+00
1.205799999999999983e+01
1.183000000000000007e+01
1.500000000000000000e+01
8.515000000000000568e+00
7.852000000000000313e+00
1.064899999999999913e+01
1.301099999999999923e+01
1.147799999999999976e+01
1.153999999999999915e+01
9.343999999999999417e+00
1.487599999999999945e+01
1.071100000000000030e+01
1.044200000000000017e+01
1.427500000000000036e+01
1.089799999999999969e+01
1.185100000000000087e+01
1.166399999999999970e+01
1.317699999999999960e+01
1.089799999999999969e+01
1.357000000000000028e+01
1.145700000000000074e+01
1.247199999999999953e+01
1.968199999999999861e+01
2.550400000000000134e+01
1.218200000000000038e+01
2.121499999999999986e+01
1.475099999999999945e+01
2.046999999999999886e+01
1.500000000000000000e+01
1.692699999999999960e+01
1.381900000000000084e+01
1.313499999999999979e+01
1.280400000000000027e+01
1.232699999999999996e+01
9.157000000000000028e+00
1.454400000000000048e+01
1.406799999999999962e+01
9.757999999999999119e+00
1.267999999999999972e+01
1.083600000000000030e+01
9.862000000000000099e+00
1.475099999999999945e+01
1.390199999999999925e+01
1.176800000000000068e+01
1.392300000000000004e+01
1.744500000000000028e+01
1.452299999999999969e+01
1.077299999999999969e+01
1.524900000000000055e+01
1.174699999999999989e+01
1.732000000000000028e+01
1.895700000000000074e+01
1.033799999999999919e+01
1.089799999999999969e+01
8.992000000000000881e+00
1.533099999999999952e+01
1.145700000000000074e+01
1.064899999999999913e+01
9.986000000000000654e+00
8.307999999999999829e+00
6.464000000000000412e+00
1.460599999999999987e+01
1.156099999999999994e+01
1.315600000000000058e+01
1.160200000000000031e+01
1.187199999999999989e+01
1.077299999999999969e+01
1.315600000000000058e+01
5.905000000000000249e+00
1.149900000000000055e+01
1.096000000000000085e+01
1.334299999999999997e+01
9.551000000000000156e+00
2.198199999999999932e+01
1.187199999999999989e+01
7.086000000000000298e+00
1.137400000000000055e+01
8.266999999999999460e+00
2.174999999999999822e+00
3.666999999999999815e+00
6.961000000000000298e+00
2.133999999999999897e+00
2.734999999999999876e+00
5.407000000000000028e+00
5.054999999999999716e+00
6.277999999999999581e+00
4.163999999999999702e+00
9.074999999999999289e+00
4.682000000000000384e+00
3.564000000000000057e+00
3.439000000000000057e+00
2.818000000000000060e+00
2.755999999999999783e+00
2.797000000000000153e+00
1.864999999999999991e+00
2.486000000000000210e+00
3.004000000000000004e+00
3.604999999999999982e+00
2.963000000000000078e+00
1.719999999999999973e+00
4.641000000000000014e+00
5.738999999999999879e+00
3.024999999999999911e+00
4.163999999999999702e+00
2.154999999999999805e+00
1.760999999999999899e+00
2.029999999999999805e+00
1.677999999999999936e+00
5.075999999999999623e+00
7.230999999999999872e+00
9.198999999999999844e+00
5.283000000000000362e+00
5.469999999999999751e+00
8.949999999999999289e+00
7.376000000000000334e+00
5.988000000000000433e+00
7.043999999999999595e+00
2.548000000000000043e+00
4.889999999999999680e+00
2.507000000000000117e+00
4.434000000000000163e+00
4.847999999999999865e+00
3.128000000000000114e+00
2.341000000000000192e+00
6.360000000000000320e+00
8.121999999999999886e+00
2.879999999999999893e+00
4.578999999999999737e+00
2.174999999999999822e+00
3.045999999999999819e+00
3.543000000000000149e+00
2.983000000000000096e+00
2.548000000000000043e+00
2.818000000000000060e+00
2.403000000000000025e+00
1.159999999999999920e+00
1.554000000000000048e+00
1.326000000000000068e+00
2.092999999999999972e+00
3.065999999999999837e+00
1.221999999999999975e+00
6.420000000000000151e-01
4.139999999999999791e-01
5.180000000000000160e-01
4.560000000000000164e-01
3.940000000000000169e-01
2.899999999999999800e-01
3.109999999999999987e-01
3.109999999999999987e-01
3.519999999999999796e-01
4.349999999999999978e-01
1.822999999999999954e+00
2.693000000000000060e+00
5.615000000000000213e+00
6.650999999999999801e+00
4.144000000000000128e+00
3.065999999999999837e+00
1.139999999999999902e+00
1.409000000000000030e+00
1.532999999999999918e+00
1.967999999999999972e+00
1.346999999999999975e+00
1.449999999999999956e+00
1.181000000000000050e+00
1.221999999999999975e+00
1.449999999999999956e+00
8.080000000000000515e-01
6.420000000000000151e-01
5.590000000000000524e-01
4.769999999999999796e-01
8.080000000000000515e-01
1.409000000000000030e+00
1.014999999999999902e+00
6.630000000000000338e-01
1.967999999999999972e+00
4.081000000000000405e+00
5.594000000000000306e+00
3.584000000000000075e+00
5.035000000000000142e+00
2.713999999999999968e+00
2.528000000000000025e+00
3.750000000000000000e+00
3.625999999999999890e+00
4.578999999999999737e+00
6.318999999999999950e+00
5.469999999999999751e+00
6.629999999999999893e+00
3.604999999999999982e+00
2.589999999999999858e+00
3.709000000000000075e+00
2.879999999999999893e+00
2.900999999999999801e+00
4.557999999999999829e+00
4.350999999999999979e+00
3.480999999999999872e+00
2.838000000000000078e+00
2.278999999999999915e+00
2.734999999999999876e+00
5.097000000000000419e+00
3.729000000000000092e+00
4.246999999999999886e+00
2.589999999999999858e+00
2.548000000000000043e+00
2.609999999999999876e+00
3.604999999999999982e+00
2.278999999999999915e+00
2.548000000000000043e+00
2.029999999999999805e+00
2.319999999999999840e+00
2.942000000000000171e+00
2.589999999999999858e+00
2.858999999999999986e+00
2.983000000000000096e+00
3.543000000000000149e+00
4.040000000000000036e+00
2.589999999999999858e+00
2.423999999999999932e+00
1.657000000000000028e+00
3.045999999999999819e+00
3.087000000000000188e+00
2.486000000000000210e+00
2.963000000000000078e+00
2.797000000000000153e+00
3.355999999999999872e+00
4.599000000000000199e+00
4.496000000000000441e+00
9.282000000000000028e+00
7.831000000000000405e+00
4.951999999999999957e+00
4.993000000000000327e+00
7.873000000000000220e+00
6.339999999999999858e+00
2.755999999999999783e+00
2.051000000000000156e+00
1.409000000000000030e+00
4.392000000000000348e+00
2.713999999999999968e+00
3.999000000000000110e+00
3.564000000000000057e+00
3.314999999999999947e+00
4.578999999999999737e+00
4.350999999999999979e+00
2.548000000000000043e+00
2.630999999999999783e+00
3.750000000000000000e+00
2.299999999999999822e+00
2.464999999999999858e+00
2.713999999999999968e+00
3.500999999999999890e+00
3.376999999999999780e+00
1.967999999999999972e+00
2.734999999999999876e+00
3.108000000000000096e+00
1.284999999999999920e+00
1.346999999999999975e+00
2.072000000000000064e+00
2.299999999999999822e+00
2.589999999999999858e+00
2.237999999999999989e+00
1.159999999999999920e+00
1.927000000000000046e+00
1.159999999999999920e+00
1.739999999999999991e+00
2.299999999999999822e+00
2.775999999999999801e+00
1.387999999999999901e+00
2.174999999999999822e+00
2.072000000000000064e+00
1.739999999999999991e+00
1.076999999999999957e+00
1.264000000000000012e+00
2.258000000000000007e+00
3.564000000000000057e+00
5.780000000000000249e+00
1.719999999999999973e+00
1.594999999999999973e+00
2.838000000000000078e+00
2.196000000000000174e+00
3.045999999999999819e+00
2.258000000000000007e+00
1.491999999999999993e+00
1.947999999999999954e+00
2.693000000000000060e+00
1.532999999999999918e+00
6.214999999999999858e+00
2.548000000000000043e+00
2.713999999999999968e+00
2.278999999999999915e+00
1.387999999999999901e+00
2.734999999999999876e+00
3.584000000000000075e+00
3.709000000000000075e+00
1.699000000000000066e+00
2.341000000000000192e+00
4.661999999999999922e+00
2.258000000000000007e+00
8.699999999999999956e-01
1.014999999999999902e+00
1.326000000000000068e+00
1.616000000000000103e+00
1.574999999999999956e+00
2.196000000000000174e+00
6.420000000000000151e-01
6.009999999999999787e-01
5.799999999999999600e-01
9.120000000000000329e-01
6.219999999999999973e-01
4.969999999999999973e-01
3.310000000000000164e-01
6.009999999999999787e-01
4.139999999999999791e-01
5.390000000000000346e-01
7.870000000000000329e-01
1.014999999999999902e+00
3.940000000000000169e-01
4.969999999999999973e-01
4.349999999999999978e-01
2.690000000000000169e-01
3.729999999999999982e-01
1.532999999999999918e+00
4.349999999999999978e-01
7.039999999999999591e-01
3.940000000000000169e-01
8.289999999999999591e-01
8.289999999999999591e-01
4.349999999999999978e-01
4.769999999999999796e-01
6.219999999999999973e-01
6.420000000000000151e-01
8.699999999999999956e-01
4.560000000000000164e-01
5.590000000000000524e-01
5.180000000000000160e-01
6.219999999999999973e-01
7.870000000000000329e-01
4.139999999999999791e-01
2.489999999999999991e-01
1.859999999999999987e-01
2.899999999999999800e-01
2.280000000000000082e-01
4.769999999999999796e-01
4.769999999999999796e-01
5.799999999999999600e-01
2.489999999999999991e-01
3.109999999999999987e-01
8.289999999999999591e-01
8.080000000000000515e-01
2.690000000000000169e-01
3.729999999999999982e-01
3.940000000000000169e-01
3.310000000000000164e-01
7.670000000000000151e-01
3.109999999999999987e-01
3.519999999999999796e-01
2.690000000000000169e-01
5.799999999999999600e-01
4.969999999999999973e-01
2.489999999999999991e-01
3.729999999999999982e-01
3.940000000000000169e-01
3.519999999999999796e-01
3.519999999999999796e-01
3.109999999999999987e-01
2.280000000000000082e-01
2.899999999999999800e-01
4.969999999999999973e-01
2.280000000000000082e-01
2.280000000000000082e-01
1.859999999999999987e-01
3.519999999999999796e-01
3.310000000000000164e-01
3.310000000000000164e-01
2.899999999999999800e-01
3.109999999999999987e-01
4.560000000000000164e-01
4.139999999999999791e-01
6.009999999999999787e-01
3.310000000000000164e-01
3.310000000000000164e-01
2.690000000000000169e-01
6.840000000000000524e-01
4.560000000000000164e-01
9.939999999999999947e-01
3.024999999999999911e+00
7.249999999999999778e-01
3.310000000000000164e-01
1.076999999999999957e+00
3.940000000000000169e-01
3.109999999999999987e-01
6.420000000000000151e-01
1.387999999999999901e+00
3.688000000000000167e+00
4.969999999999999973e-01
6.219999999999999973e-01
5.180000000000000160e-01
3.109999999999999987e-01
1.859999999999999987e-01
1.660000000000000087e-01
2.280000000000000082e-01
2.069999999999999896e-01
2.489999999999999991e-01
1.660000000000000087e-01
3.729999999999999982e-01
3.109999999999999987e-01
1.859999999999999987e-01
2.069999999999999896e-01
1.660000000000000087e-01
2.899999999999999800e-01
1.660000000000000087e-01
2.069999999999999896e-01
2.489999999999999991e-01
4.139999999999999791e-01
1.036000000000000032e+00
1.076999999999999957e+00
4.560000000000000164e-01
2.112999999999999989e+00
2.341000000000000192e+00
2.029999999999999805e+00
1.822999999999999954e+00
3.335999999999999854e+00
2.693000000000000060e+00
2.112999999999999989e+00
2.403000000000000025e+00
2.258000000000000007e+00
4.703000000000000291e+00
2.217000000000000082e+00
2.258000000000000007e+00
3.956999999999999851e+00
2.362000000000000099e+00
2.383000000000000007e+00
1.512000000000000011e+00
1.326000000000000068e+00
2.568999999999999950e+00
2.051000000000000156e+00
3.273000000000000131e+00
3.087000000000000188e+00
2.942000000000000171e+00
2.464999999999999858e+00
2.009999999999999787e+00
1.449999999999999956e+00
1.657000000000000028e+00
8.489999999999999769e-01
8.910000000000000142e-01
9.939999999999999947e-01
8.489999999999999769e-01
1.159999999999999920e+00
1.284999999999999920e+00
9.739999999999999769e-01
7.870000000000000329e-01
1.139999999999999902e+00
1.429999999999999938e+00
7.870000000000000329e-01
5.799999999999999600e-01
6.133000000000000007e+00
9.592999999999999972e+00
1.164400000000000013e+01
9.778999999999999915e+00
6.506000000000000227e+00
4.349999999999999978e-01
1.221999999999999975e+00
5.945999999999999730e+00
6.091000000000000192e+00
3.087000000000000188e+00
2.713999999999999968e+00
2.112999999999999989e+00
3.935999999999999943e+00
4.267999999999999794e+00
4.163999999999999702e+00
2.818000000000000060e+00
2.423999999999999932e+00
2.486000000000000210e+00
3.190999999999999837e+00
2.133999999999999897e+00
2.755999999999999783e+00
2.464999999999999858e+00
2.403000000000000025e+00
2.797000000000000153e+00
2.797000000000000153e+00
1.429999999999999938e+00
2.051000000000000156e+00
1.905999999999999917e+00
2.755999999999999783e+00
1.885000000000000009e+00
1.885000000000000009e+00
2.362000000000000099e+00
2.319999999999999840e+00
3.149000000000000021e+00
1.471000000000000085e+00
1.429999999999999938e+00
2.942000000000000171e+00
2.092999999999999972e+00
1.574999999999999956e+00
2.464999999999999858e+00
2.112999999999999989e+00
1.967999999999999972e+00
2.942000000000000171e+00
2.029999999999999805e+00
2.464999999999999858e+00
3.065999999999999837e+00
4.496000000000000441e+00
3.688000000000000167e+00
2.072000000000000064e+00
2.879999999999999893e+00
2.299999999999999822e+00
2.423999999999999932e+00
2.444999999999999840e+00
3.024999999999999911e+00
9.939999999999999947e-01
1.036000000000000032e+00
1.844000000000000083e+00
2.942000000000000171e+00
7.670000000000000151e-01
9.939999999999999947e-01
1.118999999999999995e+00
2.051000000000000156e+00
3.310000000000000164e-01
2.690000000000000169e-01
1.181000000000000050e+00
1.616000000000000103e+00
1.989000000000000101e+00
1.699000000000000066e+00
1.739999999999999991e+00
1.822999999999999954e+00
1.201999999999999957e+00
1.387999999999999901e+00
1.201999999999999957e+00
8.910000000000000142e-01
8.910000000000000142e-01
8.699999999999999956e-01
6.420000000000000151e-01
1.822999999999999954e+00
1.947999999999999954e+00
8.080000000000000515e-01
8.910000000000000142e-01
8.080000000000000515e-01
9.320000000000000506e-01
4.769999999999999796e-01
5.799999999999999600e-01
4.769999999999999796e-01
4.769999999999999796e-01
2.899999999999999800e-01
3.940000000000000169e-01
2.690000000000000169e-01
3.519999999999999796e-01
4.349999999999999978e-01
6.420000000000000151e-01
5.799999999999999600e-01
4.139999999999999791e-01
5.180000000000000160e-01
3.833000000000000185e+00
4.474999999999999645e+00
6.235999999999999766e+00
2.818000000000000060e+00
3.253000000000000114e+00
2.217000000000000082e+00
1.822999999999999954e+00
1.554000000000000048e+00
2.112999999999999989e+00
3.004000000000000004e+00
2.920999999999999819e+00
2.589999999999999858e+00
1.284999999999999920e+00
1.594999999999999973e+00
7.039999999999999591e-01
1.491999999999999993e+00
4.969999999999999973e-01
3.519999999999999796e-01
3.459999999999999964e+00
4.246999999999999886e+00
1.554000000000000048e+00
2.755999999999999783e+00
2.464999999999999858e+00
2.548000000000000043e+00
2.734999999999999876e+00
2.029999999999999805e+00
2.734999999999999876e+00
1.885000000000000009e+00
2.341000000000000192e+00
2.196000000000000174e+00
3.273000000000000131e+00
3.709000000000000075e+00
4.019000000000000128e+00
4.102000000000000313e+00
1.844000000000000083e+00
6.009999999999999787e-01
1.657000000000000028e+00
3.940000000000000169e-01
5.799999999999999600e-01
3.310000000000000164e-01
5.799999999999999600e-01
6.009999999999999787e-01
5.180000000000000160e-01
4.349999999999999978e-01
3.109999999999999987e-01
2.069999999999999896e-01
2.069999999999999896e-01
2.280000000000000082e-01
2.690000000000000169e-01
2.899999999999999800e-01
4.560000000000000164e-01
5.590000000000000524e-01
3.519999999999999796e-01
4.349999999999999978e-01
5.390000000000000346e-01
4.560000000000000164e-01
9.120000000000000329e-01
1.326000000000000068e+00
1.036000000000000032e+00
1.098000000000000087e+00
1.346999999999999975e+00
1.139999999999999902e+00
9.120000000000000329e-01
1.326000000000000068e+00
8.289999999999999591e-01
1.118999999999999995e+00
1.159999999999999920e+00
1.429999999999999938e+00
1.449999999999999956e+00
1.471000000000000085e+00
9.120000000000000329e-01
1.201999999999999957e+00
1.098000000000000087e+00
1.719999999999999973e+00
1.471000000000000085e+00
9.120000000000000329e-01
1.346999999999999975e+00
1.429999999999999938e+00
1.387999999999999901e+00
2.652000000000000135e+00
2.237999999999999989e+00
2.486000000000000210e+00
3.314999999999999947e+00
8.141999999999999460e+00
3.709000000000000075e+00
3.584000000000000075e+00
2.818000000000000060e+00
2.009999999999999787e+00
1.056999999999999940e+00
2.237999999999999989e+00
3.335999999999999854e+00
2.693000000000000060e+00
1.989000000000000101e+00
1.905999999999999917e+00
2.217000000000000082e+00
1.947999999999999954e+00
2.133999999999999897e+00
2.507000000000000117e+00
3.480999999999999872e+00
5.221000000000000085e+00
1.802000000000000046e+00
1.594999999999999973e+00
1.532999999999999918e+00
6.840000000000000524e-01
1.429999999999999938e+00
6.840000000000000524e-01
6.009999999999999787e-01
1.014999999999999902e+00
4.769999999999999796e-01
5.799999999999999600e-01
6.630000000000000338e-01
3.940000000000000169e-01
8.080000000000000515e-01
3.729999999999999982e-01
4.139999999999999791e-01
6.630000000000000338e-01
3.940000000000000169e-01
8.489999999999999769e-01
7.249999999999999778e-01
4.769999999999999796e-01
1.366999999999999993e+00
2.423999999999999932e+00
1.036000000000000032e+00
7.459999999999999964e-01
1.056999999999999940e+00
2.403000000000000025e+00
6.630000000000000338e-01
4.349999999999999978e-01
3.310000000000000164e-01
7.670000000000000151e-01
5.590000000000000524e-01
8.289999999999999591e-01
1.201999999999999957e+00
1.719999999999999973e+00
1.782000000000000028e+00
2.154999999999999805e+00
1.264000000000000012e+00
1.677999999999999936e+00
3.833000000000000185e+00
3.108000000000000096e+00
1.512000000000000011e+00
2.112999999999999989e+00
1.574999999999999956e+00
1.947999999999999954e+00
1.864999999999999991e+00
1.719999999999999973e+00
1.326000000000000068e+00
1.802000000000000046e+00
9.529999999999999583e-01
7.039999999999999591e-01
1.660000000000000087e-01
2.280000000000000082e-01
3.519999999999999796e-01
4.349999999999999978e-01
3.109999999999999987e-01
8.489999999999999769e-01
3.310000000000000164e-01
7.249999999999999778e-01
4.139999999999999791e-01
3.940000000000000169e-01
1.859999999999999987e-01
2.899999999999999800e-01
4.139999999999999791e-01
2.486000000000000210e+00
2.838000000000000078e+00
2.196000000000000174e+00
1.574999999999999956e+00
1.098000000000000087e+00
2.589999999999999858e+00
2.383000000000000007e+00
2.319999999999999840e+00
2.713999999999999968e+00
1.802000000000000046e+00
2.258000000000000007e+00
1.574999999999999956e+00
1.181000000000000050e+00
1.201999999999999957e+00
2.092999999999999972e+00
2.051000000000000156e+00
1.554000000000000048e+00
1.409000000000000030e+00
1.782000000000000028e+00
2.444999999999999840e+00
1.657000000000000028e+00
2.029999999999999805e+00
2.196000000000000174e+00
1.844000000000000083e+00
1.739999999999999991e+00
9.939999999999999947e-01
1.366999999999999993e+00
1.014999999999999902e+00
4.040000000000000036e+00
2.713999999999999968e+00
9.320000000000000506e-01
2.299999999999999822e+00
4.641000000000000014e+00
1.429999999999999938e+00
2.133999999999999897e+00
1.657000000000000028e+00
1.284999999999999920e+00
9.529999999999999583e-01
2.341000000000000192e+00
3.459999999999999964e+00
2.755999999999999783e+00
1.014999999999999902e+00
1.326000000000000068e+00
1.594999999999999973e+00
3.376999999999999780e+00
1.471000000000000085e+00
7.249999999999999778e-01
9.939999999999999947e-01
9.320000000000000506e-01
8.489999999999999769e-01
7.039999999999999591e-01
1.159999999999999920e+00
2.818000000000000060e+00
1.637000000000000011e+00
1.076999999999999957e+00
2.920999999999999819e+00
1.802000000000000046e+00
1.056999999999999940e+00
2.652000000000000135e+00
3.024999999999999911e+00
3.564000000000000057e+00
3.750000000000000000e+00
2.072000000000000064e+00
2.528000000000000025e+00
2.112999999999999989e+00
3.854000000000000092e+00
2.693000000000000060e+00
1.927000000000000046e+00
2.673000000000000043e+00
3.024999999999999911e+00
2.507000000000000117e+00
1.699000000000000066e+00
1.637000000000000011e+00
1.449999999999999956e+00
2.196000000000000174e+00
2.009999999999999787e+00
1.719999999999999973e+00
1.491999999999999993e+00
1.927000000000000046e+00
2.217000000000000082e+00
1.989000000000000101e+00
1.760999999999999899e+00
1.139999999999999902e+00
7.670000000000000151e-01
1.284999999999999920e+00
1.864999999999999991e+00
1.159999999999999920e+00
1.387999999999999901e+00
1.554000000000000048e+00
1.076999999999999957e+00
1.181000000000000050e+00
2.112999999999999989e+00
3.024999999999999911e+00
3.128000000000000114e+00
5.905000000000000249e+00
1.326000000000000068e+00
2.009999999999999787e+00
2.507000000000000117e+00
1.782000000000000028e+00
2.589999999999999858e+00
1.947999999999999954e+00
7.459999999999999964e-01
2.237999999999999989e+00
2.568999999999999950e+00
1.989000000000000101e+00
2.383000000000000007e+00
2.548000000000000043e+00
3.480999999999999872e+00
2.154999999999999805e+00
1.637000000000000011e+00
1.927000000000000046e+00
2.237999999999999989e+00
1.616000000000000103e+00
3.149000000000000021e+00
2.652000000000000135e+00
2.217000000000000082e+00
2.879999999999999893e+00
1.802000000000000046e+00
1.677999999999999936e+00
1.594999999999999973e+00
9.320000000000000506e-01
1.181000000000000050e+00
3.109999999999999987e-01
3.729999999999999982e-01
1.284999999999999920e+00
2.072000000000000064e+00
2.630999999999999783e+00
9.739999999999999769e-01
1.616000000000000103e+00
1.554000000000000048e+00
1.822999999999999954e+00
2.652000000000000135e+00
3.584000000000000075e+00
2.920999999999999819e+00
4.184999999999999609e+00
3.149000000000000021e+00
4.703000000000000291e+00
5.924999999999999822e+00
4.434000000000000163e+00
3.004000000000000004e+00
2.775999999999999801e+00
3.335999999999999854e+00
1.905999999999999917e+00
1.905999999999999917e+00
3.149000000000000021e+00
6.878000000000000114e+00
3.459999999999999964e+00
2.963000000000000078e+00
3.811999999999999833e+00
3.978000000000000203e+00
2.755999999999999783e+00
1.822999999999999954e+00
4.910000000000000142e+00
4.349999999999999978e-01
1.014999999999999902e+00
8.289999999999999591e-01
5.799999999999999600e-01
7.459999999999999964e-01
7.870000000000000329e-01
4.349999999999999978e-01
8.080000000000000515e-01
6.420000000000000151e-01
6.009999999999999787e-01
6.630000000000000338e-01
6.420000000000000151e-01
2.072000000000000064e+00
3.004000000000000004e+00
2.734999999999999876e+00
2.838000000000000078e+00
2.486000000000000210e+00
2.486000000000000210e+00
3.419000000000000039e+00
3.232000000000000206e+00
2.589999999999999858e+00
2.174999999999999822e+00
2.383000000000000007e+00
2.319999999999999840e+00
3.045999999999999819e+00
2.196000000000000174e+00
1.616000000000000103e+00
1.512000000000000011e+00
1.739999999999999991e+00
1.802000000000000046e+00
1.366999999999999993e+00
1.014999999999999902e+00
1.532999999999999918e+00
1.159999999999999920e+00
1.304999999999999938e+00
1.159999999999999920e+00
1.201999999999999957e+00
2.444999999999999840e+00
2.548000000000000043e+00
2.196000000000000174e+00
1.844000000000000083e+00
1.243000000000000105e+00
2.133999999999999897e+00
2.983000000000000096e+00
1.905999999999999917e+00
2.341000000000000192e+00
1.554000000000000048e+00
3.314999999999999947e+00
1.594999999999999973e+00
2.568999999999999950e+00
3.169999999999999929e+00
2.797000000000000153e+00
2.900999999999999801e+00
2.174999999999999822e+00
2.133999999999999897e+00
2.154999999999999805e+00
2.072000000000000064e+00
2.237999999999999989e+00
2.319999999999999840e+00
2.133999999999999897e+00
2.092999999999999972e+00
2.258000000000000007e+00
4.560000000000000164e-01
8.489999999999999769e-01
8.699999999999999956e-01
2.341000000000000192e+00
1.616000000000000103e+00
1.657000000000000028e+00
1.366999999999999993e+00
3.940000000000000169e-01
2.280000000000000082e-01
3.729999999999999982e-01
4.560000000000000164e-01
5.590000000000000524e-01
2.069999999999999896e-01
2.489999999999999991e-01
5.590000000000000524e-01
5.390000000000000346e-01
1.284999999999999920e+00
1.304999999999999938e+00
1.326000000000000068e+00
7.039999999999999591e-01
4.969999999999999973e-01
7.459999999999999964e-01
5.180000000000000160e-01
6.840000000000000524e-01
6.420000000000000151e-01
3.109999999999999987e-01
6.219999999999999973e-01
3.024999999999999911e+00
2.341000000000000192e+00
1.719999999999999973e+00
2.464999999999999858e+00
3.108000000000000096e+00
2.362000000000000099e+00
1.947999999999999954e+00
2.051000000000000156e+00
2.341000000000000192e+00
2.673000000000000043e+00
2.486000000000000210e+00
2.920999999999999819e+00
2.734999999999999876e+00
2.444999999999999840e+00
3.584000000000000075e+00
2.444999999999999840e+00
1.760999999999999899e+00
3.500999999999999890e+00
1.429999999999999938e+00
7.459999999999999964e-01
5.390000000000000346e-01
6.420000000000000151e-01
1.056999999999999940e+00
7.670000000000000151e-01
2.899999999999999800e-01
5.799999999999999600e-01
3.109999999999999987e-01
6.219999999999999973e-01
6.219999999999999973e-01
3.519999999999999796e-01
5.799999999999999600e-01
4.969999999999999973e-01
8.489999999999999769e-01
4.969999999999999973e-01
5.180000000000000160e-01
8.910000000000000142e-01
3.750000000000000000e+00
4.620000000000000107e+00
2.858999999999999986e+00
2.196000000000000174e+00
1.905999999999999917e+00
2.797000000000000153e+00
1.677999999999999936e+00
1.739999999999999991e+00
2.734999999999999876e+00
2.051000000000000156e+00
2.174999999999999822e+00
1.699000000000000066e+00
2.258000000000000007e+00
1.905999999999999917e+00
2.797000000000000153e+00
1.366999999999999993e+00
1.739999999999999991e+00
1.512000000000000011e+00
1.594999999999999973e+00
1.201999999999999957e+00
2.775999999999999801e+00
2.775999999999999801e+00
3.666999999999999815e+00
2.609999999999999876e+00
1.594999999999999973e+00
1.159999999999999920e+00
1.512000000000000011e+00
2.237999999999999989e+00
2.383000000000000007e+00
1.760999999999999899e+00
1.989000000000000101e+00
2.174999999999999822e+00
2.838000000000000078e+00
2.589999999999999858e+00
2.362000000000000099e+00
2.383000000000000007e+00
2.942000000000000171e+00
2.528000000000000025e+00
1.905999999999999917e+00
2.963000000000000078e+00
2.486000000000000210e+00
1.637000000000000011e+00
2.258000000000000007e+00
2.383000000000000007e+00
2.133999999999999897e+00
2.589999999999999858e+00
1.657000000000000028e+00
2.630999999999999783e+00
1.491999999999999993e+00
2.009999999999999787e+00
1.159999999999999920e+00
1.284999999999999920e+00
2.568999999999999950e+00
2.838000000000000078e+00
2.444999999999999840e+00
1.554000000000000048e+00
1.181000000000000050e+00
2.133999999999999897e+00
2.568999999999999950e+00
2.713999999999999968e+00
2.341000000000000192e+00
2.237999999999999989e+00
2.051000000000000156e+00
2.900999999999999801e+00
3.024999999999999911e+00
2.299999999999999822e+00
1.822999999999999954e+00
1.594999999999999973e+00
4.060999999999999943e+00
1.864999999999999991e+00
1.471000000000000085e+00
1.471000000000000085e+00
1.637000000000000011e+00
6.009999999999999787e-01
4.267999999999999794e+00
2.299999999999999822e+00
2.112999999999999989e+00
3.087000000000000188e+00
1.989000000000000101e+00
2.963000000000000078e+00
2.609999999999999876e+00
2.444999999999999840e+00
3.521999999999999797e+00
2.900999999999999801e+00
2.775999999999999801e+00
2.673000000000000043e+00
2.403000000000000025e+00
1.616000000000000103e+00
2.900999999999999801e+00
4.081000000000000405e+00
3.480999999999999872e+00
4.453999999999999737e+00
4.392000000000000348e+00
2.237999999999999989e+00
4.350999999999999979e+00
6.608999999999999986e+00
3.895000000000000018e+00
3.045999999999999819e+00
2.051000000000000156e+00
3.149000000000000021e+00
4.496000000000000441e+00
5.655999999999999694e+00
1.027599999999999980e+01
4.807000000000000384e+00
3.543000000000000149e+00
1.657000000000000028e+00
3.004000000000000004e+00
2.196000000000000174e+00
2.112999999999999989e+00
2.900999999999999801e+00
4.764999999999999680e+00
2.797000000000000153e+00
2.652000000000000135e+00
1.284999999999999920e+00
1.512000000000000011e+00
1.574999999999999956e+00
9.320000000000000506e-01
3.128000000000000114e+00
2.009999999999999787e+00
9.939999999999999947e-01
9.120000000000000329e-01
1.366999999999999993e+00
4.040000000000000036e+00
1.637000000000000011e+00
3.169999999999999929e+00
1.739999999999999991e+00
8.080000000000000515e-01
1.947999999999999954e+00
1.471000000000000085e+00
2.092999999999999972e+00
2.942000000000000171e+00
2.444999999999999840e+00
1.739999999999999991e+00
1.449999999999999956e+00
1.947999999999999954e+00
1.844000000000000083e+00
6.420000000000000151e-01
6.630000000000000338e-01
1.739999999999999991e+00
1.927000000000000046e+00
2.423999999999999932e+00
3.519999999999999796e-01
5.390000000000000346e-01
4.560000000000000164e-01
5.590000000000000524e-01
6.840000000000000524e-01
9.120000000000000329e-01
4.349999999999999978e-01
9.739999999999999769e-01
7.039999999999999591e-01
3.109999999999999987e-01
6.219999999999999973e-01
3.729999999999999982e-01
4.139999999999999791e-01
6.630000000000000338e-01
6.630000000000000338e-01
7.870000000000000329e-01
7.870000000000000329e-01
9.529999999999999583e-01
1.221999999999999975e+00
1.036000000000000032e+00
2.690000000000000169e-01
5.390000000000000346e-01
2.900999999999999801e+00
3.335999999999999854e+00
4.847999999999999865e+00
1.885000000000000009e+00
1.201999999999999957e+00
3.024999999999999911e+00
4.703000000000000291e+00
3.273000000000000131e+00
2.528000000000000025e+00
3.790999999999999925e+00
3.210999999999999854e+00
3.169999999999999929e+00
3.915999999999999925e+00
1.967999999999999972e+00
2.693000000000000060e+00
1.076999999999999957e+00
1.159999999999999920e+00
9.529999999999999583e-01
9.939999999999999947e-01
1.657000000000000028e+00
6.840000000000000524e-01
4.969999999999999973e-01
3.729999999999999982e-01
5.799999999999999600e-01
5.180000000000000160e-01
6.420000000000000151e-01
6.630000000000000338e-01
7.249999999999999778e-01
4.969999999999999973e-01
6.630000000000000338e-01
1.927000000000000046e+00
6.381000000000000227e+00
5.200000000000000178e+00
2.568999999999999950e+00
3.770999999999999908e+00
1.885000000000000009e+00
5.344999999999999751e+00
4.288999999999999702e+00
3.335999999999999854e+00
2.051000000000000156e+00
2.009999999999999787e+00
1.760999999999999899e+00
1.864999999999999991e+00
1.181000000000000050e+00
9.529999999999999583e-01
1.284999999999999920e+00
1.139999999999999902e+00
1.532999999999999918e+00
2.341000000000000192e+00
1.387999999999999901e+00
8.489999999999999769e-01
9.120000000000000329e-01
7.039999999999999591e-01
9.939999999999999947e-01
8.699999999999999956e-01
7.870000000000000329e-01
1.221999999999999975e+00
1.201999999999999957e+00
8.910000000000000142e-01
1.429999999999999938e+00
1.139999999999999902e+00
1.243000000000000105e+00
8.289999999999999591e-01
1.139999999999999902e+00
1.346999999999999975e+00
1.201999999999999957e+00
3.149000000000000021e+00
2.589999999999999858e+00
2.362000000000000099e+00
3.645999999999999908e+00
3.024999999999999911e+00
3.065999999999999837e+00
2.568999999999999950e+00
2.423999999999999932e+00
3.169999999999999929e+00
3.935999999999999943e+00
3.874000000000000110e+00
4.724000000000000199e+00
3.500999999999999890e+00
3.335999999999999854e+00
2.278999999999999915e+00
2.362000000000000099e+00
2.838000000000000078e+00
2.900999999999999801e+00
3.273000000000000131e+00
2.797000000000000153e+00
2.652000000000000135e+00
4.019000000000000128e+00
3.024999999999999911e+00
3.169999999999999929e+00
1.782000000000000028e+00
2.362000000000000099e+00
2.589999999999999858e+00
3.500999999999999890e+00
4.267999999999999794e+00
2.963000000000000078e+00
2.652000000000000135e+00
3.355999999999999872e+00
2.983000000000000096e+00
2.154999999999999805e+00
2.507000000000000117e+00
2.652000000000000135e+00
4.434000000000000163e+00
3.709000000000000075e+00
2.879999999999999893e+00
2.133999999999999897e+00
1.387999999999999901e+00
2.568999999999999950e+00
2.464999999999999858e+00
3.915999999999999925e+00
3.956999999999999851e+00
3.314999999999999947e+00
5.325000000000000178e+00
5.137999999999999901e+00
2.797000000000000153e+00
2.196000000000000174e+00
1.304999999999999938e+00
1.989000000000000101e+00
3.004000000000000004e+00
2.630999999999999783e+00
2.818000000000000060e+00
1.181000000000000050e+00
1.885000000000000009e+00
2.423999999999999932e+00
2.051000000000000156e+00
1.387999999999999901e+00
1.512000000000000011e+00
2.528000000000000025e+00
1.409000000000000030e+00
1.264000000000000012e+00
2.838000000000000078e+00
2.568999999999999950e+00
3.895000000000000018e+00
2.029999999999999805e+00
3.978000000000000203e+00
2.942000000000000171e+00
3.729000000000000092e+00
2.548000000000000043e+00
3.770999999999999908e+00
2.630999999999999783e+00
2.630999999999999783e+00
3.065999999999999837e+00
2.879999999999999893e+00
3.666999999999999815e+00
2.507000000000000117e+00
4.474999999999999645e+00
2.548000000000000043e+00
3.294000000000000039e+00
3.004000000000000004e+00
8.489999999999999769e-01
1.864999999999999991e+00
1.118999999999999995e+00
2.092999999999999972e+00
2.196000000000000174e+00
2.362000000000000099e+00
3.811999999999999833e+00
8.699999999999999956e-01
1.616000000000000103e+00
1.616000000000000103e+00
2.092999999999999972e+00
1.512000000000000011e+00
1.201999999999999957e+00
7.249999999999999778e-01
1.574999999999999956e+00
1.139999999999999902e+00
9.739999999999999769e-01
1.512000000000000011e+00
5.799999999999999600e-01
1.366999999999999993e+00
1.264000000000000012e+00
1.243000000000000105e+00
1.201999999999999957e+00
1.056999999999999940e+00
5.590000000000000524e-01
9.939999999999999947e-01
1.304999999999999938e+00
1.387999999999999901e+00
1.594999999999999973e+00
8.289999999999999591e-01
9.320000000000000506e-01
1.201999999999999957e+00
7.249999999999999778e-01
9.320000000000000506e-01
1.284999999999999920e+00
1.449999999999999956e+00
1.719999999999999973e+00
1.947999999999999954e+00
1.905999999999999917e+00
2.630999999999999783e+00
2.464999999999999858e+00
1.616000000000000103e+00
2.029999999999999805e+00
2.217000000000000082e+00
2.609999999999999876e+00
2.486000000000000210e+00
2.734999999999999876e+00
2.630999999999999783e+00
1.967999999999999972e+00
1.159999999999999920e+00
1.719999999999999973e+00
1.346999999999999975e+00
1.637000000000000011e+00
3.750000000000000000e+00
2.755999999999999783e+00
2.299999999999999822e+00
2.383000000000000007e+00
1.677999999999999936e+00
1.036000000000000032e+00
1.036000000000000032e+00
1.243000000000000105e+00
1.616000000000000103e+00
1.532999999999999918e+00
1.243000000000000105e+00
2.009999999999999787e+00
2.092999999999999972e+00
2.196000000000000174e+00
2.528000000000000025e+00
2.423999999999999932e+00
2.423999999999999932e+00
1.657000000000000028e+00
1.554000000000000048e+00
1.326000000000000068e+00
1.719999999999999973e+00
1.098000000000000087e+00
1.905999999999999917e+00
1.159999999999999920e+00
1.512000000000000011e+00
1.594999999999999973e+00
1.471000000000000085e+00
1.346999999999999975e+00
2.630999999999999783e+00
2.548000000000000043e+00
2.319999999999999840e+00
2.444999999999999840e+00
2.092999999999999972e+00
9.529999999999999583e-01
1.782000000000000028e+00
1.387999999999999901e+00
7.039999999999999591e-01
1.719999999999999973e+00
1.056999999999999940e+00
1.554000000000000048e+00
1.471000000000000085e+00
1.387999999999999901e+00
2.548000000000000043e+00
3.419000000000000039e+00
3.811999999999999833e+00
4.392000000000000348e+00
3.439000000000000057e+00
3.688000000000000167e+00
3.169999999999999929e+00
4.620000000000000107e+00
4.184999999999999609e+00
3.915999999999999925e+00
3.790999999999999925e+00
4.434000000000000163e+00
5.842999999999999972e+00
2.258000000000000007e+00
3.108000000000000096e+00
3.004000000000000004e+00
3.750000000000000000e+00
4.517000000000000348e+00
5.137999999999999901e+00
6.506000000000000227e+00
3.521999999999999797e+00
2.942000000000000171e+00
3.645999999999999908e+00
2.383000000000000007e+00
2.278999999999999915e+00
2.112999999999999989e+00
9.529999999999999583e-01
1.512000000000000011e+00
3.335999999999999854e+00
3.709000000000000075e+00
1.927000000000000046e+00
2.072000000000000064e+00
3.045999999999999819e+00
1.512000000000000011e+00
1.512000000000000011e+00
2.341000000000000192e+00
4.081000000000000405e+00
1.346999999999999975e+00
1.449999999999999956e+00
1.243000000000000105e+00
1.822999999999999954e+00
1.699000000000000066e+00
1.989000000000000101e+00
2.858999999999999986e+00
3.625999999999999890e+00
2.673000000000000043e+00
2.775999999999999801e+00
3.149000000000000021e+00
4.144000000000000128e+00
1.594999999999999973e+00
2.755999999999999783e+00
2.217000000000000082e+00
2.755999999999999783e+00
2.879999999999999893e+00
1.699000000000000066e+00
2.072000000000000064e+00
1.574999999999999956e+00
2.693000000000000060e+00
2.278999999999999915e+00
2.403000000000000025e+00
1.864999999999999991e+00
1.637000000000000011e+00
1.574999999999999956e+00
1.594999999999999973e+00
1.243000000000000105e+00
1.885000000000000009e+00
2.196000000000000174e+00
1.637000000000000011e+00
5.799999999999999600e-01
7.249999999999999778e-01
1.118999999999999995e+00
1.284999999999999920e+00
1.076999999999999957e+00
1.056999999999999940e+00
1.264000000000000012e+00
4.371999999999999886e+00
7.459999999999999964e-01
9.320000000000000506e-01
1.947999999999999954e+00
1.657000000000000028e+00
6.420000000000000151e-01
9.529999999999999583e-01
1.409000000000000030e+00
1.181000000000000050e+00
1.429999999999999938e+00
6.009999999999999787e-01
1.056999999999999940e+00
1.346999999999999975e+00
1.284999999999999920e+00
2.072000000000000064e+00
1.429999999999999938e+00
1.221999999999999975e+00
8.489999999999999769e-01
9.939999999999999947e-01
1.326000000000000068e+00
1.429999999999999938e+00
2.174999999999999822e+00
1.326000000000000068e+00
1.927000000000000046e+00
1.118999999999999995e+00
1.201999999999999957e+00
1.181000000000000050e+00
1.118999999999999995e+00
1.326000000000000068e+00
1.512000000000000011e+00
2.217000000000000082e+00
1.409000000000000030e+00
1.243000000000000105e+00
1.927000000000000046e+00
1.201999999999999957e+00
1.326000000000000068e+00
8.080000000000000515e-01
1.657000000000000028e+00
9.120000000000000329e-01
1.118999999999999995e+00
1.264000000000000012e+00
1.326000000000000068e+00
9.529999999999999583e-01
1.512000000000000011e+00
1.221999999999999975e+00
1.201999999999999957e+00
1.409000000000000030e+00
9.739999999999999769e-01
1.532999999999999918e+00
1.264000000000000012e+00
9.939999999999999947e-01
1.076999999999999957e+00
1.181000000000000050e+00
1.139999999999999902e+00
1.947999999999999954e+00
1.616000000000000103e+00
1.782000000000000028e+00
9.739999999999999769e-01
1.864999999999999991e+00
2.734999999999999876e+00
1.284999999999999920e+00
2.072000000000000064e+00
2.568999999999999950e+00
2.528000000000000025e+00
2.383000000000000007e+00
2.507000000000000117e+00
2.548000000000000043e+00
1.885000000000000009e+00
1.326000000000000068e+00
2.983000000000000096e+00
1.927000000000000046e+00
1.947999999999999954e+00
2.963000000000000078e+00
3.625999999999999890e+00
2.630999999999999783e+00
2.568999999999999950e+00
2.383000000000000007e+00
2.009999999999999787e+00
1.719999999999999973e+00
7.105999999999999872e+00
2.734999999999999876e+00
2.942000000000000171e+00
2.900999999999999801e+00
2.838000000000000078e+00
2.734999999999999876e+00
7.249999999999999778e-01
1.719999999999999973e+00
1.967999999999999972e+00
1.181000000000000050e+00
2.900999999999999801e+00
1.409000000000000030e+00
1.657000000000000028e+00
1.802000000000000046e+00
1.864999999999999991e+00
1.594999999999999973e+00
1.739999999999999991e+00
2.507000000000000117e+00
1.512000000000000011e+00
1.471000000000000085e+00
1.491999999999999993e+00
2.403000000000000025e+00
1.532999999999999918e+00
8.080000000000000515e-01
9.939999999999999947e-01
1.637000000000000011e+00
2.568999999999999950e+00
1.699000000000000066e+00
2.154999999999999805e+00
1.346999999999999975e+00
1.782000000000000028e+00
1.947999999999999954e+00
1.159999999999999920e+00
1.532999999999999918e+00
2.319999999999999840e+00
2.362000000000000099e+00
2.797000000000000153e+00
2.341000000000000192e+00
1.594999999999999973e+00
1.181000000000000050e+00
8.489999999999999769e-01
1.181000000000000050e+00
2.072000000000000064e+00
1.429999999999999938e+00
1.574999999999999956e+00
2.092999999999999972e+00
1.885000000000000009e+00
1.387999999999999901e+00
1.366999999999999993e+00
1.782000000000000028e+00
1.822999999999999954e+00
6.420000000000000151e-01
1.118999999999999995e+00
1.782000000000000028e+00
3.335999999999999854e+00
2.652000000000000135e+00
9.939999999999999947e-01
1.159999999999999920e+00
1.159999999999999920e+00
1.864999999999999991e+00
1.304999999999999938e+00
9.120000000000000329e-01
2.051000000000000156e+00
1.905999999999999917e+00
9.939999999999999947e-01
1.616000000000000103e+00
2.423999999999999932e+00
1.532999999999999918e+00
2.818000000000000060e+00
1.284999999999999920e+00
1.802000000000000046e+00
1.014999999999999902e+00
6.630000000000000338e-01
1.387999999999999901e+00
1.098000000000000087e+00
1.616000000000000103e+00
1.532999999999999918e+00
1.471000000000000085e+00
1.409000000000000030e+00
8.699999999999999956e-01
1.181000000000000050e+00
1.989000000000000101e+00
1.014999999999999902e+00
1.739999999999999991e+00
8.289999999999999591e-01
1.201999999999999957e+00
6.009999999999999787e-01
6.630000000000000338e-01
6.840000000000000524e-01
7.670000000000000151e-01
5.799999999999999600e-01
1.056999999999999940e+00
8.699999999999999956e-01
1.118999999999999995e+00
1.118999999999999995e+00
5.590000000000000524e-01
9.320000000000000506e-01
1.264000000000000012e+00
9.739999999999999769e-01
1.554000000000000048e+00
1.326000000000000068e+00
6.420000000000000151e-01
1.574999999999999956e+00
8.080000000000000515e-01
1.387999999999999901e+00
7.870000000000000329e-01
9.120000000000000329e-01
4.769999999999999796e-01
6.009999999999999787e-01
3.310000000000000164e-01
5.390000000000000346e-01
7.249999999999999778e-01
7.249999999999999778e-01
9.939999999999999947e-01
6.009999999999999787e-01
9.120000000000000329e-01
6.630000000000000338e-01
7.039999999999999591e-01
8.910000000000000142e-01
7.459999999999999964e-01
1.159999999999999920e+00
9.739999999999999769e-01
7.870000000000000329e-01
1.098000000000000087e+00
8.699999999999999956e-01
1.947999999999999954e+00
1.366999999999999993e+00
7.249999999999999778e-01
1.076999999999999957e+00
9.529999999999999583e-01
9.739999999999999769e-01
1.366999999999999993e+00
1.014999999999999902e+00
8.910000000000000142e-01
7.670000000000000151e-01
1.076999999999999957e+00
9.739999999999999769e-01
8.289999999999999591e-01
1.036000000000000032e+00
2.486000000000000210e+00
6.630000000000000338e-01
2.174999999999999822e+00
1.221999999999999975e+00
1.036000000000000032e+00
9.120000000000000329e-01
1.574999999999999956e+00
1.159999999999999920e+00
1.719999999999999973e+00
1.014999999999999902e+00
6.840000000000000524e-01
1.098000000000000087e+00
1.056999999999999940e+00
1.056999999999999940e+00
1.139999999999999902e+00
1.076999999999999957e+00
1.014999999999999902e+00
1.366999999999999993e+00
1.264000000000000012e+00
1.159999999999999920e+00
1.098000000000000087e+00
9.529999999999999583e-01
1.014999999999999902e+00
1.201999999999999957e+00
9.739999999999999769e-01
7.870000000000000329e-01
8.489999999999999769e-01
9.320000000000000506e-01
1.264000000000000012e+00
8.080000000000000515e-01
9.529999999999999583e-01
8.699999999999999956e-01
8.080000000000000515e-01
9.120000000000000329e-01
9.120000000000000329e-01
1.036000000000000032e+00
4.969999999999999973e-01
1.243000000000000105e+00
8.699999999999999956e-01
1.304999999999999938e+00
1.014999999999999902e+00
1.512000000000000011e+00
2.528000000000000025e+00
3.833000000000000185e+00
1.036000000000000032e+00
1.076999999999999957e+00
1.594999999999999973e+00
1.637000000000000011e+00
6.009999999999999787e-01
5.799999999999999600e-01
8.289999999999999591e-01
6.420000000000000151e-01
7.670000000000000151e-01
6.009999999999999787e-01
1.056999999999999940e+00
6.840000000000000524e-01
1.905999999999999917e+00
1.449999999999999956e+00
1.387999999999999901e+00
1.159999999999999920e+00
8.080000000000000515e-01
1.387999999999999901e+00
1.243000000000000105e+00
1.159999999999999920e+00
8.289999999999999591e-01
7.459999999999999964e-01
1.844000000000000083e+00
7.459999999999999964e-01
1.802000000000000046e+00
7.670000000000000151e-01
1.822999999999999954e+00
1.739999999999999991e+00
1.387999999999999901e+00
1.616000000000000103e+00
2.051000000000000156e+00
8.699999999999999956e-01
1.264000000000000012e+00
1.264000000000000012e+00
1.264000000000000012e+00
2.258000000000000007e+00
3.004000000000000004e+00
4.123000000000000220e+00
3.729000000000000092e+00
2.486000000000000210e+00
6.009999999999999787e-01
2.690000000000000169e-01
5.180000000000000160e-01
2.899999999999999800e-01
2.690000000000000169e-01
3.729999999999999982e-01
5.390000000000000346e-01
9.529999999999999583e-01
8.699999999999999956e-01
4.560000000000000164e-01
6.420000000000000151e-01
1.366999999999999993e+00
1.139999999999999902e+00
2.217000000000000082e+00
1.512000000000000011e+00
9.939999999999999947e-01
6.840000000000000524e-01
2.341000000000000192e+00
1.056999999999999940e+00
8.910000000000000142e-01
4.769999999999999796e-01
4.769999999999999796e-01
2.069999999999999896e-01
2.899999999999999800e-01
3.310000000000000164e-01
1.859999999999999987e-01
2.690000000000000169e-01
2.069999999999999896e-01
3.940000000000000169e-01
1.660000000000000087e-01
1.859999999999999987e-01
2.899999999999999800e-01
4.349999999999999978e-01
3.519999999999999796e-01
1.660000000000000087e-01
2.489999999999999991e-01
2.069999999999999896e-01
4.769999999999999796e-01
1.449999999999999900e-01
1.859999999999999987e-01
1.449999999999999900e-01
1.449999999999999900e-01
2.690000000000000169e-01
3.109999999999999987e-01
1.660000000000000087e-01
1.239999999999999991e-01
1.859999999999999987e-01
2.690000000000000169e-01
6.009999999999999787e-01
2.069999999999999896e-01
3.310000000000000164e-01
6.420000000000000151e-01
2.899999999999999800e-01
6.009999999999999787e-01
4.139999999999999791e-01
4.139999999999999791e-01
2.690000000000000169e-01
4.969999999999999973e-01
3.940000000000000169e-01
3.310000000000000164e-01
2.899999999999999800e-01
4.560000000000000164e-01
3.940000000000000169e-01
3.940000000000000169e-01
2.489999999999999991e-01
3.109999999999999987e-01
2.069999999999999896e-01
3.109999999999999987e-01
3.519999999999999796e-01
2.690000000000000169e-01
1.449999999999999900e-01
2.690000000000000169e-01
3.940000000000000169e-01
5.390000000000000346e-01
2.280000000000000082e-01
3.310000000000000164e-01
3.310000000000000164e-01
1.859999999999999987e-01
2.489999999999999991e-01
2.069999999999999896e-01
3.109999999999999987e-01
2.280000000000000082e-01
2.069999999999999896e-01
5.180000000000000160e-01
3.128000000000000114e+00
1.822999999999999954e+00
1.532999999999999918e+00
2.051000000000000156e+00
2.280000000000000082e-01
4.349999999999999978e-01
9.939999999999999947e-01
1.885000000000000009e+00
2.713999999999999968e+00
1.532999999999999918e+00
1.264000000000000012e+00
7.870000000000000329e-01
2.879999999999999893e+00
1.802000000000000046e+00
7.670000000000000151e-01
1.660000000000000087e-01
1.822999999999999954e+00
3.770999999999999908e+00
3.940000000000000169e-01
2.423999999999999932e+00
1.264000000000000012e+00
1.532999999999999918e+00
2.029999999999999805e+00
3.729999999999999982e-01
6.840000000000000524e-01
1.719999999999999973e+00
1.532999999999999918e+00
1.594999999999999973e+00
8.489999999999999769e-01
1.284999999999999920e+00
2.009999999999999787e+00
1.264000000000000012e+00
2.341000000000000192e+00
1.760999999999999899e+00
1.366999999999999993e+00
1.304999999999999938e+00
1.014999999999999902e+00
6.219999999999999973e-01
2.899999999999999800e-01
4.969999999999999973e-01
1.471000000000000085e+00
1.181000000000000050e+00
1.284999999999999920e+00
7.459999999999999964e-01
4.769999999999999796e-01
8.289999999999999591e-01
8.699999999999999956e-01
6.420000000000000151e-01
1.677999999999999936e+00
1.532999999999999918e+00
4.560000000000000164e-01
6.630000000000000338e-01
4.969999999999999973e-01
5.180000000000000160e-01
4.769999999999999796e-01
3.519999999999999796e-01
3.729999999999999982e-01
3.940000000000000169e-01
8.080000000000000515e-01
6.009999999999999787e-01
9.320000000000000506e-01
5.390000000000000346e-01
3.729999999999999982e-01
4.769999999999999796e-01
4.349999999999999978e-01
5.180000000000000160e-01
5.590000000000000524e-01
4.969999999999999973e-01
6.009999999999999787e-01
6.840000000000000524e-01
6.009999999999999787e-01
1.512000000000000011e+00
1.532999999999999918e+00
2.278999999999999915e+00
1.594999999999999973e+00
1.864999999999999991e+00
1.036000000000000032e+00
1.864999999999999991e+00
3.109999999999999987e-01
7.670000000000000151e-01
4.349999999999999978e-01
2.489999999999999991e-01
4.139999999999999791e-01
1.660000000000000087e-01
1.239999999999999991e-01
1.239999999999999991e-01
1.239999999999999991e-01
2.280000000000000082e-01
1.449999999999999900e-01
1.660000000000000087e-01
2.280000000000000082e-01
1.660000000000000087e-01
1.660000000000000087e-01
1.449999999999999900e-01
2.690000000000000169e-01
3.519999999999999796e-01
8.300000000000000433e-02
1.239999999999999991e-01
1.039999999999999952e-01
1.239999999999999991e-01
1.239999999999999991e-01
1.239999999999999991e-01
1.039999999999999952e-01
1.660000000000000087e-01
8.300000000000000433e-02
1.449999999999999900e-01
3.109999999999999987e-01
1.660000000000000087e-01
1.859999999999999987e-01
1.859999999999999987e-01
1.239999999999999991e-01
1.449999999999999900e-01
1.239999999999999991e-01
1.239999999999999991e-01
1.449999999999999900e-01
4.560000000000000164e-01
1.039999999999999952e-01
4.560000000000000164e-01
3.109999999999999987e-01
2.489999999999999991e-01
3.310000000000000164e-01
2.489999999999999991e-01
1.660000000000000087e-01
2.489999999999999991e-01
2.489999999999999991e-01
1.449999999999999900e-01
1.449999999999999900e-01
2.899999999999999800e-01
1.239999999999999991e-01
2.280000000000000082e-01
2.899999999999999800e-01
1.660000000000000087e-01
1.859999999999999987e-01
1.449999999999999900e-01
1.859999999999999987e-01
1.039999999999999952e-01
1.239999999999999991e-01
1.449999999999999900e-01
2.069999999999999896e-01
3.109999999999999987e-01
3.940000000000000169e-01
2.899999999999999800e-01
1.239999999999999991e-01
2.280000000000000082e-01
2.280000000000000082e-01
1.239999999999999991e-01
1.660000000000000087e-01
2.280000000000000082e-01
1.449999999999999900e-01
2.069999999999999896e-01
1.449999999999999900e-01
1.449999999999999900e-01
1.660000000000000087e-01
2.489999999999999991e-01
2.690000000000000169e-01
1.239999999999999991e-01
2.690000000000000169e-01
2.069999999999999896e-01
2.069999999999999896e-01
1.239999999999999991e-01
1.449999999999999900e-01
1.449999999999999900e-01
1.859999999999999987e-01
1.239999999999999991e-01
1.660000000000000087e-01
1.449999999999999900e-01
3.109999999999999987e-01
1.239999999999999991e-01
2.069999999999999896e-01
1.660000000000000087e-01
1.239999999999999991e-01
1.449999999999999900e-01
1.449999999999999900e-01
1.239999999999999991e-01
1.660000000000000087e-01
2.069999999999999896e-01
1.660000000000000087e-01
1.449999999999999900e-01
2.899999999999999800e-01
2.280000000000000082e-01
1.449999999999999900e-01
1.239999999999999991e-01
1.449999999999999900e-01
1.039999999999999952e-01
1.239999999999999991e-01
1.039999999999999952e-01
1.449999999999999900e-01
8.300000000000000433e-02
1.449999999999999900e-01
1.449999999999999900e-01
1.660000000000000087e-01
3.109999999999999987e-01
1.239999999999999991e-01
1.449999999999999900e-01
1.660000000000000087e-01
2.069999999999999896e-01
1.449999999999999900e-01
1.660000000000000087e-01
1.239999999999999991e-01
1.660000000000000087e-01
1.239999999999999991e-01
2.899999999999999800e-01
2.489999999999999991e-01
1.449999999999999900e-01
1.239999999999999991e-01
1.239999999999999991e-01
1.660000000000000087e-01
8.300000000000000433e-02
1.660000000000000087e-01
2.069999999999999896e-01
2.899999999999999800e-01
3.335999999999999854e+00
4.661999999999999922e+00
6.112000000000000099e+00
2.258000000000000007e+00
2.403000000000000025e+00
1.864999999999999991e+00
2.278999999999999915e+00
2.507000000000000117e+00
2.444999999999999840e+00
2.589999999999999858e+00
2.963000000000000078e+00
3.895000000000000018e+00
3.190999999999999837e+00
3.729000000000000092e+00
3.065999999999999837e+00
5.137999999999999901e+00
2.673000000000000043e+00
2.154999999999999805e+00
1.989000000000000101e+00
2.423999999999999932e+00
4.769999999999999796e-01
1.844000000000000083e+00
3.310000000000000164e-01
2.489999999999999991e-01
1.239999999999999991e-01
1.239999999999999991e-01
1.660000000000000087e-01
7.249999999999999778e-01
1.905999999999999917e+00
2.174999999999999822e+00
3.564000000000000057e+00
3.688000000000000167e+00
3.750000000000000000e+00
4.434000000000000163e+00
3.210999999999999854e+00
2.174999999999999822e+00
2.154999999999999805e+00
2.133999999999999897e+00
1.760999999999999899e+00
1.927000000000000046e+00
2.383000000000000007e+00
2.713999999999999968e+00
2.673000000000000043e+00
1.822999999999999954e+00
2.341000000000000192e+00
2.609999999999999876e+00
1.864999999999999991e+00
4.144000000000000128e+00
3.666999999999999815e+00
6.671000000000000263e+00
2.217000000000000082e+00
2.548000000000000043e+00
3.045999999999999819e+00
2.838000000000000078e+00
2.609999999999999876e+00
2.963000000000000078e+00
4.019000000000000128e+00
2.609999999999999876e+00
3.128000000000000114e+00
2.319999999999999840e+00
2.963000000000000078e+00
2.009999999999999787e+00
2.797000000000000153e+00
3.314999999999999947e+00
3.790999999999999925e+00
2.652000000000000135e+00
3.149000000000000021e+00
2.548000000000000043e+00
3.314999999999999947e+00
1.864999999999999991e+00
2.755999999999999783e+00
1.594999999999999973e+00
2.775999999999999801e+00
1.719999999999999973e+00
2.713999999999999968e+00
3.543000000000000149e+00
2.589999999999999858e+00
2.154999999999999805e+00
2.196000000000000174e+00
2.838000000000000078e+00
1.221999999999999975e+00
1.989000000000000101e+00
2.486000000000000210e+00
2.734999999999999876e+00
4.350999999999999979e+00
7.272000000000000242e+00
4.536999999999999922e+00
2.609999999999999876e+00
2.444999999999999840e+00
1.098000000000000087e+00
4.040000000000000036e+00
2.858999999999999986e+00
1.554000000000000048e+00
3.833000000000000185e+00
2.838000000000000078e+00
2.341000000000000192e+00
2.879999999999999893e+00
1.346999999999999975e+00
1.139999999999999902e+00
2.092999999999999972e+00
2.319999999999999840e+00
2.423999999999999932e+00
2.383000000000000007e+00
1.699000000000000066e+00
2.507000000000000117e+00
3.500999999999999890e+00
1.760999999999999899e+00
1.885000000000000009e+00
2.568999999999999950e+00
1.967999999999999972e+00
2.609999999999999876e+00
2.009999999999999787e+00
1.844000000000000083e+00
2.713999999999999968e+00
2.112999999999999989e+00
2.154999999999999805e+00
2.444999999999999840e+00
1.699000000000000066e+00
2.092999999999999972e+00
1.989000000000000101e+00
2.258000000000000007e+00
1.760999999999999899e+00
2.133999999999999897e+00
1.449999999999999956e+00
2.528000000000000025e+00
1.471000000000000085e+00
2.609999999999999876e+00
2.486000000000000210e+00
1.927000000000000046e+00
1.616000000000000103e+00
2.237999999999999989e+00
2.362000000000000099e+00
1.885000000000000009e+00
2.464999999999999858e+00
2.154999999999999805e+00
1.471000000000000085e+00
1.471000000000000085e+00
1.967999999999999972e+00
1.699000000000000066e+00
2.278999999999999915e+00
1.181000000000000050e+00
2.174999999999999822e+00
1.677999999999999936e+00
1.512000000000000011e+00
1.616000000000000103e+00
2.341000000000000192e+00
2.072000000000000064e+00
1.927000000000000046e+00
2.444999999999999840e+00
2.507000000000000117e+00
2.507000000000000117e+00
1.201999999999999957e+00
2.237999999999999989e+00
1.326000000000000068e+00
2.092999999999999972e+00
1.739999999999999991e+00
1.159999999999999920e+00
1.657000000000000028e+00
1.802000000000000046e+00
1.739999999999999991e+00
1.076999999999999957e+00
1.989000000000000101e+00
3.398000000000000131e+00
1.782000000000000028e+00
1.699000000000000066e+00
2.341000000000000192e+00
2.609999999999999876e+00
1.657000000000000028e+00
2.444999999999999840e+00
2.051000000000000156e+00
2.942000000000000171e+00
1.739999999999999991e+00
1.802000000000000046e+00
1.864999999999999991e+00
1.594999999999999973e+00
2.092999999999999972e+00
1.947999999999999954e+00
1.409000000000000030e+00
2.507000000000000117e+00
1.802000000000000046e+00
1.739999999999999991e+00
1.739999999999999991e+00
3.004000000000000004e+00
1.927000000000000046e+00
1.387999999999999901e+00
2.362000000000000099e+00
1.864999999999999991e+00
1.782000000000000028e+00
2.009999999999999787e+00
2.009999999999999787e+00
1.657000000000000028e+00
2.051000000000000156e+00
2.009999999999999787e+00
1.594999999999999973e+00
1.657000000000000028e+00
1.885000000000000009e+00
2.319999999999999840e+00
1.594999999999999973e+00
2.112999999999999989e+00
2.258000000000000007e+00
2.029999999999999805e+00
1.802000000000000046e+00
1.989000000000000101e+00
3.087000000000000188e+00
2.029999999999999805e+00
1.967999999999999972e+00
1.243000000000000105e+00
1.989000000000000101e+00
1.512000000000000011e+00
1.554000000000000048e+00
1.532999999999999918e+00
1.409000000000000030e+00
2.133999999999999897e+00
2.755999999999999783e+00
1.616000000000000103e+00
1.429999999999999938e+00
1.471000000000000085e+00
1.844000000000000083e+00
1.760999999999999899e+00
2.278999999999999915e+00
1.802000000000000046e+00
2.154999999999999805e+00
2.174999999999999822e+00
1.802000000000000046e+00
2.423999999999999932e+00
2.133999999999999897e+00
2.589999999999999858e+00
1.927000000000000046e+00
1.782000000000000028e+00
2.630999999999999783e+00
2.734999999999999876e+00
4.060999999999999943e+00
8.224999999999999645e+00
4.453999999999999737e+00
4.019000000000000128e+00
2.589999999999999858e+00
6.235999999999999766e+00
1.927000000000000046e+00
2.858999999999999986e+00
3.459999999999999964e+00
5.532000000000000028e+00
8.369999999999999218e+00
5.698000000000000398e+00
5.532000000000000028e+00
3.750000000000000000e+00
5.634999999999999787e+00
5.283000000000000362e+00
3.294000000000000039e+00
5.179999999999999716e+00
4.288999999999999702e+00
6.256999999999999673e+00
6.339999999999999858e+00
6.174000000000000377e+00
5.490000000000000213e+00
4.620000000000000107e+00
5.179999999999999716e+00
6.174000000000000377e+00
5.261999999999999567e+00
5.842999999999999972e+00
5.097000000000000419e+00
6.919999999999999929e+00
3.666999999999999815e+00
5.158999999999999808e+00
2.112999999999999989e+00
1.739999999999999991e+00
6.070000000000000284e+00
2.797000000000000153e+00
4.703000000000000291e+00
8.640000000000000568e+00
5.863000000000000433e+00
4.246999999999999886e+00
5.116999999999999993e+00
4.868999999999999773e+00
6.277999999999999581e+00
6.091000000000000192e+00
4.206000000000000405e+00
6.381000000000000227e+00
5.490000000000000213e+00
4.641000000000000014e+00
4.246999999999999886e+00
5.035000000000000142e+00
6.671000000000000263e+00
4.392000000000000348e+00
3.253000000000000114e+00
5.511000000000000121e+00
6.525999999999999801e+00
6.485000000000000320e+00
6.235999999999999766e+00
5.801000000000000156e+00
6.112000000000000099e+00
4.764999999999999680e+00
2.673000000000000043e+00
9.939999999999999947e-01
3.310000000000000164e-01
3.109999999999999987e-01
9.529999999999999583e-01
5.590000000000000524e-01
2.899999999999999800e-01
3.519999999999999796e-01
3.109999999999999987e-01
1.859999999999999987e-01
1.859999999999999987e-01
5.590000000000000524e-01
2.899999999999999800e-01
3.310000000000000164e-01
1.660000000000000087e-01
1.449999999999999900e-01
3.109999999999999987e-01
2.072000000000000064e+00
2.217000000000000082e+00
2.489999999999999991e-01
3.729999999999999982e-01
1.449999999999999900e-01
1.014999999999999902e+00
1.491999999999999993e+00
1.366999999999999993e+00
3.310000000000000164e-01
6.840000000000000524e-01
4.139999999999999791e-01
6.630000000000000338e-01
6.009999999999999787e-01
5.390000000000000346e-01
1.014999999999999902e+00
5.390000000000000346e-01
9.739999999999999769e-01
5.590000000000000524e-01
8.080000000000000515e-01
6.840000000000000524e-01
1.098000000000000087e+00
6.009999999999999787e-01
5.590000000000000524e-01
1.014999999999999902e+00
4.769999999999999796e-01
7.249999999999999778e-01
6.840000000000000524e-01
8.489999999999999769e-01
1.076999999999999957e+00
7.039999999999999591e-01
1.304999999999999938e+00
1.594999999999999973e+00
1.429999999999999938e+00
2.217000000000000082e+00
2.423999999999999932e+00
1.927000000000000046e+00
1.346999999999999975e+00
1.947999999999999954e+00
1.967999999999999972e+00
2.693000000000000060e+00
1.905999999999999917e+00
2.029999999999999805e+00
2.423999999999999932e+00
1.346999999999999975e+00
1.760999999999999899e+00
2.258000000000000007e+00
1.719999999999999973e+00
3.232000000000000206e+00
3.065999999999999837e+00
1.719999999999999973e+00
2.858999999999999986e+00
1.574999999999999956e+00
2.444999999999999840e+00
2.072000000000000064e+00
2.029999999999999805e+00
1.989000000000000101e+00
1.927000000000000046e+00
2.630999999999999783e+00
1.947999999999999954e+00
2.072000000000000064e+00
1.532999999999999918e+00
2.196000000000000174e+00
2.341000000000000192e+00
2.652000000000000135e+00
3.709000000000000075e+00
2.609999999999999876e+00
2.693000000000000060e+00
7.039999999999999591e-01
2.755999999999999783e+00
2.713999999999999968e+00
8.699999999999999956e-01
2.652000000000000135e+00
1.512000000000000011e+00
1.554000000000000048e+00
2.755999999999999783e+00
2.630999999999999783e+00
1.491999999999999993e+00
1.677999999999999936e+00
2.237999999999999989e+00
2.072000000000000064e+00
3.273000000000000131e+00
5.325000000000000178e+00
3.376999999999999780e+00
4.434000000000000163e+00
3.355999999999999872e+00
3.398000000000000131e+00
2.652000000000000135e+00
3.024999999999999911e+00
4.682000000000000384e+00
3.500999999999999890e+00
5.179999999999999716e+00
3.584000000000000075e+00
4.040000000000000036e+00
5.097000000000000419e+00
3.419000000000000039e+00
4.496000000000000441e+00
4.785999999999999588e+00
3.999000000000000110e+00
3.895000000000000018e+00
4.474999999999999645e+00
5.945999999999999730e+00
5.842999999999999972e+00
3.874000000000000110e+00
2.983000000000000096e+00
3.004000000000000004e+00
1.616000000000000103e+00
1.554000000000000048e+00
1.657000000000000028e+00
2.589999999999999858e+00
1.760999999999999899e+00
1.657000000000000028e+00
3.065999999999999837e+00
1.409000000000000030e+00
2.797000000000000153e+00
4.330000000000000071e+00
2.734999999999999876e+00
4.163999999999999702e+00
3.024999999999999911e+00
3.210999999999999854e+00
1.056999999999999940e+00
1.243000000000000105e+00
2.838000000000000078e+00
2.920999999999999819e+00
3.999000000000000110e+00
2.900999999999999801e+00
1.366999999999999993e+00
1.947999999999999954e+00
2.029999999999999805e+00
2.133999999999999897e+00
1.304999999999999938e+00
2.838000000000000078e+00
1.699000000000000066e+00
2.652000000000000135e+00
2.174999999999999822e+00
1.201999999999999957e+00
2.797000000000000153e+00
2.154999999999999805e+00
1.532999999999999918e+00
1.512000000000000011e+00
1.637000000000000011e+00
2.092999999999999972e+00
3.790999999999999925e+00
2.589999999999999858e+00
2.548000000000000043e+00
7.870000000000000329e-01
1.076999999999999957e+00
1.118999999999999995e+00
1.387999999999999901e+00
2.983000000000000096e+00
1.616000000000000103e+00
1.739999999999999991e+00
1.739999999999999991e+00
1.739999999999999991e+00
2.444999999999999840e+00
1.512000000000000011e+00
1.637000000000000011e+00
2.548000000000000043e+00
2.133999999999999897e+00
2.464999999999999858e+00
2.818000000000000060e+00
2.423999999999999932e+00
3.398000000000000131e+00
2.112999999999999989e+00
2.258000000000000007e+00
1.864999999999999991e+00
2.154999999999999805e+00
2.775999999999999801e+00
4.868999999999999773e+00
2.775999999999999801e+00
3.978000000000000203e+00
1.739999999999999991e+00
2.983000000000000096e+00
2.568999999999999950e+00
4.474999999999999645e+00
3.604999999999999982e+00
2.775999999999999801e+00
4.599000000000000199e+00
3.564000000000000057e+00
3.500999999999999890e+00
2.775999999999999801e+00
1.947999999999999954e+00
1.201999999999999957e+00
1.677999999999999936e+00
1.429999999999999938e+00
7.870000000000000329e-01
8.910000000000000142e-01
2.489999999999999991e-01
3.310000000000000164e-01
3.940000000000000169e-01
5.180000000000000160e-01
5.799999999999999600e-01
2.069999999999999896e-01
4.769999999999999796e-01
6.420000000000000151e-01
1.947999999999999954e+00
1.181000000000000050e+00
3.940000000000000169e-01
1.660000000000000087e-01
6.219999999999999973e-01
1.859999999999999987e-01
2.899999999999999800e-01
2.899999999999999800e-01
5.799999999999999600e-01
4.969999999999999973e-01
2.069999999999999896e-01
1.660000000000000087e-01
2.489999999999999991e-01
3.729999999999999982e-01
6.840000000000000524e-01
2.489999999999999991e-01
3.310000000000000164e-01
4.349999999999999978e-01
3.109999999999999987e-01
4.560000000000000164e-01
4.349999999999999978e-01
4.560000000000000164e-01
5.799999999999999600e-01
9.529999999999999583e-01
4.139999999999999791e-01
7.870000000000000329e-01
3.940000000000000169e-01
7.039999999999999591e-01
8.489999999999999769e-01
7.870000000000000329e-01
6.420000000000000151e-01
3.940000000000000169e-01
5.590000000000000524e-01
8.289999999999999591e-01
6.420000000000000151e-01
7.249999999999999778e-01
8.910000000000000142e-01
7.039999999999999591e-01
7.039999999999999591e-01
6.009999999999999787e-01
1.284999999999999920e+00
1.491999999999999993e+00
5.799999999999999600e-01
7.039999999999999591e-01
5.799999999999999600e-01
6.009999999999999787e-01
7.039999999999999591e-01
2.489999999999999991e-01
2.690000000000000169e-01
6.219999999999999973e-01
7.459999999999999964e-01
3.310000000000000164e-01
4.560000000000000164e-01
3.519999999999999796e-01
2.280000000000000082e-01
3.940000000000000169e-01
5.390000000000000346e-01
3.310000000000000164e-01
6.219999999999999973e-01
2.489999999999999991e-01
4.969999999999999973e-01
3.940000000000000169e-01
2.489999999999999991e-01
5.180000000000000160e-01
4.969999999999999973e-01
1.304999999999999938e+00
5.390000000000000346e-01
1.449999999999999956e+00
7.039999999999999591e-01
1.284999999999999920e+00
7.870000000000000329e-01
9.120000000000000329e-01
3.729999999999999982e-01
8.080000000000000515e-01
1.927000000000000046e+00
4.969999999999999973e-01
2.899999999999999800e-01
2.489999999999999991e-01
3.729999999999999982e-01
6.420000000000000151e-01
7.459999999999999964e-01
1.284999999999999920e+00
5.390000000000000346e-01
5.590000000000000524e-01
1.014999999999999902e+00
7.670000000000000151e-01
5.590000000000000524e-01
3.729999999999999982e-01
5.590000000000000524e-01
4.969999999999999973e-01
3.519999999999999796e-01
2.489999999999999991e-01
3.109999999999999987e-01
3.310000000000000164e-01
4.560000000000000164e-01
4.139999999999999791e-01
4.349999999999999978e-01
5.799999999999999600e-01
4.769999999999999796e-01
4.969999999999999973e-01
5.390000000000000346e-01
6.840000000000000524e-01
5.590000000000000524e-01
1.574999999999999956e+00
1.905999999999999917e+00
7.870000000000000329e-01
1.594999999999999973e+00
9.320000000000000506e-01
2.797000000000000153e+00
3.376999999999999780e+00
3.521999999999999797e+00
6.546999999999999709e+00
6.091000000000000192e+00
5.801000000000000156e+00
6.732999999999999652e+00
6.008000000000000007e+00
4.972000000000000419e+00
1.170599999999999952e+01
1.822999999999999954e+00
3.210999999999999854e+00
3.874000000000000110e+00
4.807000000000000384e+00
2.589999999999999858e+00
6.402000000000000135e+00
3.750000000000000000e+00
9.157000000000000028e+00
8.660000000000000142e+00
4.227000000000000313e+00
4.724000000000000199e+00
9.095000000000000639e+00
5.116999999999999993e+00
3.398000000000000131e+00
1.031799999999999962e+01
7.644999999999999574e+00
5.054999999999999716e+00
7.562000000000000277e+00
4.019000000000000128e+00
4.227000000000000313e+00
3.335999999999999854e+00
2.112999999999999989e+00
3.833000000000000185e+00
3.688000000000000167e+00
2.217000000000000082e+00
7.870000000000000329e-01
8.910000000000000142e-01
9.939999999999999947e-01
9.939999999999999947e-01
1.326000000000000068e+00
1.221999999999999975e+00
1.802000000000000046e+00
2.362000000000000099e+00
2.237999999999999989e+00
1.574999999999999956e+00
1.574999999999999956e+00
8.289999999999999591e-01
1.008999999999999986e+01
3.087000000000000188e+00
4.267999999999999794e+00
5.573000000000000398e+00
4.496000000000000441e+00
5.097000000000000419e+00
3.190999999999999837e+00
4.703000000000000291e+00
5.427999999999999936e+00
1.532999999999999918e+00
3.210999999999999854e+00
3.294000000000000039e+00
4.163999999999999702e+00
6.277999999999999581e+00
5.945999999999999730e+00
6.588000000000000078e+00
7.583000000000000185e+00
4.743999999999999773e+00
1.864999999999999991e+00
3.253000000000000114e+00
3.210999999999999854e+00
4.889999999999999680e+00
2.507000000000000117e+00
2.072000000000000064e+00
1.760999999999999899e+00
1.118999999999999995e+00
3.688000000000000167e+00
7.870000000000000329e-01
7.459999999999999964e-01
9.939999999999999947e-01
5.590000000000000524e-01
7.459999999999999964e-01
5.590000000000000524e-01
4.969999999999999973e-01
4.349999999999999978e-01
4.560000000000000164e-01
5.799999999999999600e-01
5.180000000000000160e-01
5.390000000000000346e-01
5.799999999999999600e-01
7.459999999999999964e-01
6.009999999999999787e-01
1.159999999999999920e+00
7.459999999999999964e-01
9.939999999999999947e-01
7.870000000000000329e-01
1.014999999999999902e+00
7.249999999999999778e-01
7.870000000000000329e-01
6.630000000000000338e-01
7.039999999999999591e-01
8.910000000000000142e-01
6.219999999999999973e-01
8.910000000000000142e-01
1.098000000000000087e+00
4.349999999999999978e-01
7.459999999999999964e-01
4.560000000000000164e-01
8.080000000000000515e-01
5.390000000000000346e-01
3.729999999999999982e-01
6.009999999999999787e-01
6.630000000000000338e-01
8.489999999999999769e-01
8.699999999999999956e-01
8.699999999999999956e-01
7.039999999999999591e-01
7.039999999999999591e-01
3.940000000000000169e-01
5.180000000000000160e-01
3.729999999999999982e-01
4.969999999999999973e-01
2.899999999999999800e-01
6.420000000000000151e-01
7.459999999999999964e-01
4.139999999999999791e-01
3.519999999999999796e-01
4.349999999999999978e-01
2.489999999999999991e-01
6.420000000000000151e-01
2.489999999999999991e-01
4.139999999999999791e-01
3.729999999999999982e-01
3.310000000000000164e-01
4.560000000000000164e-01
3.109999999999999987e-01
4.969999999999999973e-01
4.969999999999999973e-01
5.799999999999999600e-01
8.080000000000000515e-01
7.039999999999999591e-01
4.769999999999999796e-01
4.769999999999999796e-01
5.799999999999999600e-01
4.969999999999999973e-01
5.180000000000000160e-01
3.940000000000000169e-01
6.630000000000000338e-01
5.590000000000000524e-01
5.180000000000000160e-01
4.349999999999999978e-01
4.139999999999999791e-01
3.940000000000000169e-01
4.969999999999999973e-01
8.080000000000000515e-01
3.940000000000000169e-01
3.519999999999999796e-01
3.109999999999999987e-01
2.489999999999999991e-01
3.940000000000000169e-01
2.690000000000000169e-01
2.280000000000000082e-01
6.630000000000000338e-01
4.560000000000000164e-01
4.969999999999999973e-01
3.109999999999999987e-01
7.870000000000000329e-01
4.769999999999999796e-01
4.560000000000000164e-01
2.489999999999999991e-01
3.519999999999999796e-01
4.349999999999999978e-01
4.139999999999999791e-01
3.729999999999999982e-01
2.899999999999999800e-01
2.489999999999999991e-01
4.969999999999999973e-01
2.690000000000000169e-01
3.310000000000000164e-01
4.349999999999999978e-01
3.729999999999999982e-01
2.489999999999999991e-01
2.899999999999999800e-01
4.139999999999999791e-01
4.139999999999999791e-01
3.519999999999999796e-01
4.560000000000000164e-01
9.320000000000000506e-01
4.769999999999999796e-01
4.349999999999999978e-01
3.310000000000000164e-01
3.729999999999999982e-01
4.139999999999999791e-01
3.940000000000000169e-01
3.940000000000000169e-01
3.310000000000000164e-01
3.940000000000000169e-01
4.139999999999999791e-01
3.729999999999999982e-01
4.969999999999999973e-01
4.349999999999999978e-01
4.769999999999999796e-01
4.769999999999999796e-01
2.069999999999999896e-01
4.969999999999999973e-01
4.969999999999999973e-01
3.940000000000000169e-01
4.349999999999999978e-01
4.969999999999999973e-01
3.310000000000000164e-01
4.139999999999999791e-01
5.799999999999999600e-01
4.139999999999999791e-01
6.630000000000000338e-01
5.590000000000000524e-01
3.310000000000000164e-01
4.139999999999999791e-01
3.519999999999999796e-01
5.390000000000000346e-01
3.940000000000000169e-01
2.899999999999999800e-01
5.590000000000000524e-01
4.349999999999999978e-01
2.899999999999999800e-01
2.489999999999999991e-01
3.729999999999999982e-01
3.940000000000000169e-01
2.280000000000000082e-01
3.310000000000000164e-01
2.690000000000000169e-01
3.940000000000000169e-01
2.280000000000000082e-01
2.690000000000000169e-01
